Time_s,Ground_Truth_Amplitude,Measured_Amplitude,Frequency_Hz,Measured_PSD_dBHz,Ground_Truth_PSD_dBHz
0,0.436464249309483,0.371113292671635,0,-6.8191723168069,-12.6771751295919
0.001,0.422347406951637,0.379665493891081,0.48828125,-7.92601362483652,-13.6901647877583
0.002,0.433158676338433,0.388147736363942,0.9765625,-22.9110452063855,-26.6901969035959
0.003,0.426880698354547,0.396548169714953,1.46484375,-39.8088442291023,-35.1092201982367
0.004,0.437478031618203,0.404855197863927,1.953125,-43.4408152095657,-38.0467211299087
0.005,0.447958367969033,0.413057521688454,2.44140625,-44.0511540109648,-40.6024604787841
0.006,0.446555139568267,0.421144179997916,2.9296875,-43.9116540038058,-40.9943843162757
0.007,0.42837470791808,0.429104588499987,3.41796875,-46.458788796651,-40.2161896666139
0.008,0.424638434777593,0.436928576479213,3.90625,-46.8813638620556,-41.7828293212107
0.009,0.42989288096029,0.444606420948483,4.39453125,-48.3570164187934,-42.5041589302245
0.01,0.426024442712713,0.452128878078517,4.8828125,-47.2528078934015,-42.8116956246608
0.011,0.4024397548265,0.459487211758221,5.37109375,-46.1840308938849,-44.3227376903486
0.012,0.425439262021493,0.466673219186849,5.859375,-52.7918525909936,-45.282811719747
0.013,0.407799364609623,0.473679253441525,6.34765625,-52.5695925788313,-47.0706607322171
0.014,0.418395738411817,0.480498242995705,6.8359375,-52.0470178711706,-47.1313802538542
0.015,0.415700877866023,0.487123708185126,7.32421875,-50.4491609240493,-50.6218465304847
0.016,0.399677637088637,0.493549774632352,7.8125,-54.9032983905353,-53.5567957550528
0.017,0.39699098831845,0.499771183655148,8.30078125,-58.6112162661325,-55.5817275077015
0.018,0.414395066710297,0.505783299700972,8.7890625,-53.7412593569328,-56.1573518320428
0.019,0.404077366825207,0.511582114869298,9.27734375,-53.8473590897538,-56.0408477053839
0.02,0.417607078168377,0.517164250602215,9.765625,-58.609986147158,-59.4009823828922
0.021,0.43113125732005,0.522526956638553,10.25390625,-66.8422689858307,-60.8800019293013
0.022,0.423114428653297,0.52766810733616,10.7421875,-56.9394805919693,-58.1086987656195
0.023,0.42170499762522,0.532586195471782,11.23046875,-55.2899820069553,-59.4424178700735
0.024,0.429988183565023,0.537280323630677,11.71875,-58.9868715805404,-60.4038308719216
0.025,0.435608201466567,0.541750193300576,12.20703125,-75.3423709324408,-62.4859530885126
0.026,0.444944599444307,0.545996091787883,12.6953125,-58.8637910469676,-61.2448934112253
0.027,0.454613075563073,0.550018877077456,13.18359375,-56.7586969202446,-59.55018146692
0.028,0.431740785337623,0.553819960760575,13.671875,-59.4667863623862,-61.6195757499907
0.029,0.426518046695757,0.557401289159127,14.16015625,-80.0849331510329,-66.3083306162828
0.03,0.418068186757073,0.560765322777698,14.6484375,-61.3087134619853,-64.0770038301457
0.031,0.416910804523753,0.563915014219036,15.13671875,-57.8112519014796,-65.4909256917448
0.032,0.41367661685847,0.566853784701988,15.625,-59.91862356324,-61.1618320487346
0.033,0.405124507630443,0.569585499325467,16.11328125,-72.9646351200834,-69.0546203040955
0.034,0.428193877423273,0.572114441229026,16.6015625,-63.7562488354529,-65.3300622453542
0.035,0.41867608533557,0.574445284810508,17.08984375,-59.0179624748199,-65.3722236587785
0.036,0.407132624554447,0.576583068171568,17.578125,-60.2590758219627,-64.3426047826016
0.037,0.4140781318548,0.57853316496794,18.06640625,-69.8977910295316,-69.8488219353387
0.038,0.41077911767432,0.580301255840484,18.5546875,-66.4638044052505,-69.787719114957
0.039,0.413802334848083,0.581893299595907,19.04296875,-60.2644527641087,-65.3006908820527
0.04,0.402067325102273,0.583315504295008,19.53125,-60.6373652701705,-65.8039180343796
0.041,0.425889742341063,0.584574298392799,20.01953125,-68.0716791954044,-71.1932060420028
0.042,0.418479412298967,0.585676302059099,20.5078125,-69.696720924154,-73.298607580131
0.043,0.43510920179559,0.586628298789796,20.99609375,-61.533053789153,-66.8345341812848
0.044,0.4437038780007,0.587437207399203,21.484375,-61.0958737522772,-65.903075346549
0.045,0.433283643735383,0.588110054464802,21.97265625,-66.8886699303814,-67.9432936633678
0.046,0.443967818182063,0.588653947279663,22.4609375,-73.9050782904002,-70.4208258047478
0.047,0.443918225128293,0.589076047356231,22.94921875,-62.8841952029528,-65.7413597935125
0.048,0.430663895945087,0.589383544518889,23.4375,-61.6121738195966,-68.0490995844033
0.049,0.423356844158857,0.589583631621867,23.92578125,-66.0835531855814,-69.7881438968503
0.05,0.411098681694277,0.589683479933443,24.4140625,-80.3528242604115,-69.7985847635393
0.051,0.41739286475795,0.58969021523543,24.90234375,-64.3472689225029,-65.6213968533669
0.052,0.408892883686767,0.589610894696281,25.390625,-62.1865007609407,-65.400553067807
0.053,0.414260362446467,0.589452484583542,25.87890625,-65.5634404777256,-69.0402199421949
0.054,0.403481533236697,0.589221838884802,26.3671875,-90.6538821931625,-70.3696067814063
0.055,0.404718983635717,0.588925678905548,26.85546875,-65.9586818587201,-70.9040428453309
0.056,0.39753825218152,0.588570573908652,27.34375,-62.8285467646142,-67.2465211923031
0.057,0.427861495877487,0.588162922855801,27.83203125,-65.2435651444232,-69.3589941211552
0.058,0.414051764513803,0.587708937306764,28.3203125,-81.0867207534334,-78.6588903075488
0.059,0.424818668665163,0.587214625527419,28.80859375,-67.7785381021913,-73.4421393315475
0.06,0.422505754764587,0.586685777850406,29.296875,-63.5455840097027,-67.3403230692646
0.061,0.428590517309187,0.58612795332272,29.78515625,-65.0816892797192,-72.1041805338113
0.062,0.43016709997682,0.58554646766319,30.2734375,-76.1603936700337,-74.8057088511932
0.063,0.448958838237017,0.584946382541369,30.76171875,-69.8954542297425,-75.6645584127355
0.064,0.425634290763897,0.584332496180225,31.25,-64.3459105782846,-68.9382740861362
0.065,0.43465448273858,0.583709335279119,31.73828125,-65.0508966187831,-69.6117278352094
0.066,0.41426910793472,0.583081148249293,32.2265625,-73.3904671145307,-73.8969976024522
0.067,0.43782080484919,0.582451899748213,32.71484375,-72.4601769703729,-72.8230756622829
0.068,0.429383485940887,0.58182526648946,33.203125,-65.2419772824649,-73.7661420275072
0.069,0.435092935965667,0.581204634292783,33.69140625,-65.1348944704672,-69.0424124665997
0.07,0.425043657508147,0.580593096328942,34.1796875,-71.5860077112869,-76.4270381629702
0.071,0.426696926245887,0.579993452510717,34.66796875,-75.7719417099927,-73.4810644688764
0.072,0.430390134588387,0.579408209985578,35.15625,-66.2487868352626,-69.2199133919926
0.073,0.414667795272203,0.578839584693456,35.64453125,-65.3229135399173,-68.9866221151335
0.074,0.43335606498217,0.578289503959336,36.1328125,-70.3337883718919,-75.0637700275542
0.075,0.401523120533573,0.57775961009269,36.62109375,-80.5696949163063,-72.1195138776771
0.076,0.440056223705557,0.577251264965137,37.109375,-67.3874816545778,-70.4380591009367
0.077,0.403884862128883,0.576765555538206,37.59765625,-65.6093837013123,-70.5374897666382
0.078,0.424269792387287,0.576303300317407,38.0859375,-69.443322499925,-73.2307947927521
0.079,0.42408582184073,0.575865056716339,38.57421875,-89.446232743617,-77.2397566294947
0.08,0.415218894724927,0.575451129320876,39.0625,-68.6871556281973,-73.9988166109262
0.081,0.434138279402863,0.575061579043242,39.55078125,-65.9921752182036,-71.3127367107203
0.082,0.426685336668497,0.574696233146035,40.0390625,-68.8133085640867,-69.5872711848624
0.083,0.43639733286025,0.574354696098183,40.52734375,-88.7795954399877,-74.0412234760618
0.084,0.440063549224873,0.574036361203595,41.015625,-70.1910992923355,-74.5520964398894
0.085,0.437428318035707,0.573740422924357,41.50390625,-66.4717806074702,-70.838021173773
0.086,0.423108707711337,0.573465889807344,41.9921875,-68.3840588422672,-72.5927119828916
0.087,0.44673552995942,0.573211597916345,42.48046875,-81.3520162028208,-74.8341939938888
0.088,0.431553968176443,0.572976224670381,42.96875,-71.965969883232,-73.3915472228191
0.089,0.411905679649023,0.572758302991429,43.45703125,-67.0520550611105,-69.5084831372098
0.09,0.430233353221117,0.572556235669904,43.9453125,-68.1181960586555,-73.2617705191192
0.091,0.396898149262883,0.572368309862511,44.43359375,-77.6079790060076,-76.532342862476
0.092,0.402423849101557,0.57219271164311,44.921875,-74.1228196672616,-76.1965273972116
0.093,0.40882577642667,0.57202754053245,45.41015625,-67.7398990810178,-72.270864309193
0.094,0.392367585279377,0.571870823937582,45.8984375,-67.9916816839855,-73.1760326889914
0.095,0.393560723093853,0.571720531437808,46.38671875,-75.2560927435896,-76.2633702595492
0.096,0.40572141958011,0.571574588861825,46.875,-76.8687469532482,-75.9181632989166
0.097,0.41571246199043,0.571430892109601,47.36328125,-68.5460018563833,-74.4298602804309
0.098,0.4127949703374,0.571287320680652,47.8515625,-67.988824952546,-72.473202625624
0.099,0.428765919198793,0.571141750875947,48.33984375,-73.6290414145866,-77.2956569055288
0.1,0.442614468603813,0.570992068642431,48.828125,-80.6597566884073,-76.3840912376528
0.101,0.415354575933863,0.570836182027374,49.31640625,-69.4862101318863,-58.8134561642484
0.102,0.42279412277191,0.570672033205319,49.8046875,-68.0997045703625,-50.7436501502241
0.103,0.426274170556653,0.570497610035068,50.29296875,-72.4530907486906,-51.7914626127803
0.104,0.445624764909463,0.57031095709929,50.78125,-86.8378493265809,-61.1596420714996
0.105,0.42777874732209,0.570110186176032,51.26953125,-70.5835203431461,-74.3409442606851
0.106,0.437305886239397,0.569893486089757,51.7578125,-68.3186911645407,-71.8542978483442
0.107,0.434343118258493,0.569659131889592,52.24609375,-71.5908565911927,-74.7999572009234
0.108,0.434053538927423,0.56940549330435,52.734375,-96.6033110584362,-76.6065170380032
0.109,0.424526232862697,0.569131042428911,53.22265625,-71.8720106754286,-74.2479926546874
0.11,0.425611335916847,0.568834360605745,53.7109375,-68.6436658176439,-71.1519260474405
0.111,0.41267671037451,0.568514144478532,54.19921875,-70.9643364050299,-74.2587897180071
0.112,0.41744742075391,0.568169211209996,54.6875,-86.5858886122468,-76.0680753160528
0.113,0.413828005493487,0.567798502870918,55.17578125,-73.403816891977,-77.4766413756518
0.114,0.397937121421567,0.567401090020432,55.6640625,-69.0757102235385,-71.3819129559589
0.115,0.393847271662417,0.566976174508352,56.15234375,-70.5257622721715,-73.2812223439447
0.116,0.42903040512107,0.566523091537378,56.640625,-81.4615451682645,-77.4943268114808
0.117,0.42052800987713,0.566041311025491,57.12890625,-75.2635499917744,-78.0719132559618
0.118,0.40269014005371,0.565530438306093,57.6171875,-69.6190864349161,-73.8283954558561
0.119,0.412513338203777,0.564990214196626,58.10546875,-70.2444226233875,-75.5127098539524
0.12,0.422158715795907,0.564420514457649,58.59375,-78.4729299631942,-74.6138630760848
0.121,0.420927181654487,0.563821348655705,59.08203125,-77.6006870680426,-74.984421369365
0.122,0.43829948093678,0.563192858435734,59.5703125,-70.2816998112081,-75.1354566265868
0.123,0.438738503937947,0.562535315203584,60.05859375,-70.1001139374212,-77.6906209604355
0.124,0.441901593055357,0.561849117218071,60.546875,-76.459255540793,-74.44855755236
0.125,0.461107416002773,0.561134786096936,61.03515625,-80.7165858406082,-76.2878130510905
0.126,0.44678958388743,0.56039296275209,61.5234375,-71.0759585339383,-74.2440464877359
0.127,0.42347320229837,0.559624402784039,62.01171875,-70.0796238308693,-74.9610309211494
0.128,0.42775713087601,0.558829971378732,62.5,-75.0104583458777,-77.5146904658477
0.129,0.431913572683037,0.55801063775791,62.98828125,-85.366741942631,-79.8188538395073
0.13,0.414504711663223,0.557167469234566,63.4765625,-72.0203987197971,-72.9671057003645
0.131,0.422660986549587,0.556301624919942,63.96484375,-70.1747539181302,-73.9332253449936
0.132,0.422623859258553,0.555414349119749,64.453125,-73.9371653754248,-76.0837640337293
0.133,0.40012432631031,0.55450696444778,64.94140625,-94.2262327681503,-80.7490432910282
0.134,0.412357987853097,0.553580864676767,65.4296875,-73.142521830374,-76.3855583974646
0.135,0.4217595306289,0.552637507341206,65.91796875,-70.3812229570894,-73.3202154486056
0.136,0.408451763788697,0.551678406106061,66.40625,-73.1372416662371,-73.112864443072
0.137,0.418001673591007,0.550705122918695,66.89453125,-92.8117375295881,-76.6125011507267
0.138,0.40845362181362,0.549719259967565,67.3828125,-74.4839861333455,-76.0412042058152
0.139,0.430112236366977,0.548722451477823,67.87109375,-70.6981035701692,-74.2590442180525
0.14,0.43317760880513,0.547716355379087,68.359375,-72.5500219512058,-75.8295339010543
0.141,0.428454125293003,0.546702644883411,68.84765625,-85.3701596099115,-78.9988772346326
0.142,0.419298602359643,0.545683000012405,69.3359375,-76.1106335612088,-75.8095493934445
0.143,0.423771703944827,0.54465909911288,69.82421875,-71.1276787773862,-74.535331315897
0.144,0.414665372797037,0.543632610401075,70.3125,-72.1371794152928,-77.4115781314407
0.145,0.421951073732773,0.542605183576289,70.80078125,-81.5262942986822,-78.618597359184
0.146,0.414704281519267,0.541578441544284,71.2890625,-78.1338991178047,-77.0786473692112
0.147,0.44106055940644,0.54055397228858,71.77734375,-71.675654844061,-74.3189161976234
0.148,0.438019309956697,0.539533320925328,72.265625,-71.8736145105286,-75.0549883950958
0.149,0.443409458017947,0.53851798197803,72.75390625,-79.0591874433837,-76.1528138255609
0.15,0.421809430289393,0.537509391914582,73.2421875,-80.7632427251954,-75.905762646013
0.151,0.40642492000936,0.536508922000514,73.73046875,-72.3517859786707,-76.0587358199055
0.152,0.395303475084443,0.535517871535931,74.21875,-71.7427211052347,-74.844826365226
0.153,0.417394829746773,0.534537461555207,74.70703125,-77.316634934205,-78.9332265343802
0.154,0.40129533014704,0.533568829075132,75.1953125,-84.4642427071421,-76.1806381860015
0.155,0.406647875655023,0.532613021978297,75.68359375,-73.1710850854129,-74.8611132427472
0.156,0.389676214065903,0.531670994615192,76.171875,-71.7337706189477,-75.9529764723799
0.157,0.39256829580648,0.530743604201858,76.66015625,-76.0290008118723,-76.5806360683748
0.158,0.401129426949737,0.529831608079778,77.1484375,-90.6219832087572,-77.6963010131562
0.159,0.419565545808777,0.528935661890128,77.63671875,-74.1559764699136,-74.2746633651181
0.16,0.436398597155383,0.528056318694982,78.125,-71.8404319267886,-74.6098680708808
0.161,0.42655934335105,0.527194029054764,78.61328125,-75.0600679480201,-73.8134189325261
0.162,0.438756609394353,0.5263491420468,79.1015625,-99.9462182383338,-75.68944455384
0.163,0.4236504616643,0.525521907187103,79.58984375,-75.3401347101603,-76.3495915055807
0.164,0.437859620327097,0.524712477198545,80.078125,-72.0599740202969,-74.7214382996346
0.165,0.446383994879903,0.52392091155411,80.56640625,-74.3321602504734,-76.8391311918274
0.166,0.441453553696783,0.523147180713858,81.0546875,-89.7657506639517,-76.6998198230294
0.167,0.437846908538287,0.522391170969133,81.54296875,-76.7756841352837,-75.5645542503098
0.168,0.430774766070053,0.521652689807928,82.03125,-72.3929226794063,-72.8341716000147
0.169,0.444083155822597,0.520931471721307,82.51953125,-73.7974286635906,-75.0828393953424
0.17,0.4238265754315,0.520227184381048,83.0078125,-84.6251790353343,-74.7626041279618
0.171,0.406367692764037,0.519539435130393,83.49609375,-78.547786646603,-76.7985769205809
0.172,0.412761643438663,0.518867777739953,83.984375,-72.8430937197677,-76.7260103406515
0.173,0.433498912052363,0.518211719387054,84.47265625,-73.4249433474981,-78.77062358636
0.174,0.401475430233707,0.51757072781841,84.9609375,-81.5759757808639,-76.7969362740889
0.175,0.419579647336563,0.516944238653372,85.44921875,-80.8078298212686,-75.6924608377553
0.176,0.420106261009067,0.516331662779423,85.9375,-73.4180056795925,-74.9998040621822
0.177,0.394992377318057,0.515732393785129,86.42578125,-73.1942339673577,-75.6789806316154
0.178,0.398348153908143,0.515145815370256,86.9140625,-79.4914828283119,-78.9391694516142
0.179,0.421521256171417,0.514571308669757,87.40234375,-83.8628306585877,-78.8218281771359
0.18,0.41945126466707,0.514008259429026,87.890625,-74.129772550338,-74.5857454370824
0.181,0.415744419426563,0.513456064973027,88.37890625,-73.0918117619255,-76.7985024631141
0.182,0.424535944542623,0.51291414092194,88.8671875,-77.970034408467,-72.1628892138605
0.183,0.443769899411403,0.512381927619507,89.35546875,-88.4889108084538,-74.5441343521217
0.184,0.42607194039385,0.511858896254973,89.84375,-74.9967322774408,-74.0319792247547
0.185,0.440563616892773,0.51134455467303,90.33203125,-73.1092141790298,-75.427640067856
0.186,0.44548283763722,0.510838452877751,90.8203125,-76.8250402984357,-74.9136039283456
0.187,0.441940370960207,0.510340188246646,91.30859375,-97.4475345066192,-76.4892414753172
0.188,0.424142544452807,0.509849410480536,91.796875,-76.0463297792154,-78.3314177819533
0.189,0.43754758742948,0.50936582632375,92.28515625,-73.2419112971333,-77.1947530131866
0.19,0.410462323357837,0.508889204095799,92.7734375,-75.9554581151659,-78.0376591190721
0.191,0.408123509888703,0.50841937807886,93.26171875,-95.351254551048,-80.7329976235074
0.192,0.409933832923307,0.507956252804733,93.75,-77.3203745905909,-78.7493761166116
0.193,0.41235502767121,0.507499807281615,94.23828125,-73.4887589991837,-77.9523522807891
0.194,0.395358997355087,0.507050099196392,94.7265625,-75.3010529344711,-76.307403858024
0.195,0.397277738104507,0.506607269123473,95.21484375,-87.9906851480858,-77.7541818574379
0.196,0.401338480784873,0.506171544767645,95.703125,-78.8852565388025,-78.4275877869449
0.197,0.415452610267037,0.505743245266647,96.19140625,-73.8518516586433,-75.7246190364341
0.198,0.430446833908553,0.505322785579008,96.6796875,-74.8236435278969,-75.594628818701
0.199,0.409014569507367,0.504910680982553,97.16796875,-84.1291059403449,-78.283928525946
0.2,0.421446688437977,0.504507551705793,97.65625,-80.8538059061346,-78.7643258950263
0.201,0.418748772278257,0.504114127706361,98.14453125,-74.3367413682434,-74.3400630211092
0.202,0.43953559123999,0.503731253598776,98.6328125,-74.4981503726936,-75.3722824438495
0.203,0.44288802415715,0.503359893722427,99.12109375,-81.6210354503821,-74.392561190708
0.204,0.426457287452077,0.503001137333449,99.609375,-83.4390583967542,-74.9404847648727
0.205,0.43132316821267,0.502656203901,100.09765625,-74.953076136021,-74.8004088503173
0.206,0.42134756441966,0.502326448486619,100.5859375,-74.3079238404278,-73.2361470965806
0.207,0.43384622578232,0.502013367181168,101.07421875,-79.8306557207451,-77.6095395134853
0.208,0.41466011337889,0.501718602565613,101.5625,-87.117476017378,-78.1833128448034
0.209,0.41178936633019,0.501443949149264,102.05078125,-75.7158259283134,-74.7141703699481
0.21,0.42828851212271,0.501191358722444,102.5390625,-74.2421619209636,-76.6518504348235
0.211,0.399614152866967,0.500962945540755,103.02734375,-78.4932772009597,-77.0912887458137
0.212,0.42262163844375,0.500760991237511,103.515625,-93.3209048655818,-75.6809973965098
0.213,0.40507601315373,0.50058794934339,104.00390625,-76.647462138734,-74.257235664714
0.214,0.4128154861315,0.500446449281508,104.4921875,-74.2944517577029,-74.2870621303849
0.215,0.43167075468552,0.5003392997033,104.98046875,-77.4745948015853,-76.4118322641387
0.216,0.406498276571557,0.500269491034223,105.46875,-102.198708414691,-77.750974242286
0.217,0.414084739306203,0.500240197106087,105.95703125,-77.7818564503224,-76.7691725714591
0.218,0.40713500260342,0.500254775763198,106.4453125,-74.4619820129221,-75.2938208195628
0.219,0.422400858689673,0.500316768341786,106.93359375,-76.6977804992303,-76.7857784014144
0.22,0.417588579814313,0.500429897935401,107.421875,-91.9545204420719,-78.6711375379399
0.221,0.438588692332873,0.500598066370887,107.91015625,-79.171599982244,-75.848109468802
0.222,0.43430616009932,0.50082534982799,108.3984375,-74.7452105461571,-73.4390485379891
0.223,0.43758858330479,0.501115993040204,108.88671875,-76.1153842684891,-76.3531338426669
0.224,0.428554809985357,0.501474402017719,109.375,-86.8455115902054,-77.9315983794852
0.225,0.435773200719147,0.501905135238962,109.86328125,-80.9028794035281,-76.0243275001954
0.226,0.43797290988207,0.502412893266953,110.3515625,-75.1479036954967,-74.2940001156003
0.227,0.42549931760229,0.503002506759956,110.83984375,-75.6966678817182,-76.3420208247569
0.228,0.42830202921515,0.503678922861122,111.328125,-83.7800973521575,-75.3826579109851
0.229,0.429571519950513,0.504447189968284,111.81640625,-83.1294400522719,-75.4590923506878
0.23,0.43442901751824,0.505312440904023,112.3046875,-75.677556754144,-75.8662627547336
0.231,0.40605581289489,0.506279874529253,112.79296875,-75.4212492568248,-75.8381150267053
0.232,0.403300886767223,0.507354735870916,113.28125,-81.6659249540797,-75.6678541226239
0.233,0.39621342459217,0.508542294862915,113.76953125,-86.1645678719082,-78.7990116140323
0.234,0.41607993820763,0.509847823824954,114.2578125,-76.3463032067606,-73.9929024771667
0.235,0.406688986001487,0.51127657382393,114.74609375,-75.2756720993009,-88.0944142567704
0.236,0.42083613459959,0.512833750076279,115.234375,-80.1100400909002,-80.3603805698979
0.237,0.40951784061073,0.514524486558198,115.72265625,-90.8064169778743,-77.2037500690364
0.238,0.412890449465323,0.516353819994914,116.2109375,-77.1725653690091,-75.246497811597
0.239,0.425847792677527,0.518326663400637,116.69921875,-75.2514787205357,-76.0941377127164
0.24,0.43466089141566,0.520447779338934,117.1875,-78.928940846489,-78.5176358157588
0.241,0.435744914161913,0.522721753071524,117.67578125,-99.9033041377739,-80.4127454495454
0.242,0.4333343241309,0.525152965764941,118.1640625,-78.1839797086184,-77.5095525336467
0.243,0.423503710916283,0.527745567929764,118.65234375,-75.3441334345918,-74.0420734547821
0.244,0.433778040296903,0.530503453273496,119.140625,-78.0229162559441,-73.2740285319031
0.245,0.418822052159073,0.53343023315146,119.62890625,-97.1493072257382,-75.2791196917391
0.246,0.434663991252257,0.536529211796564,120.1171875,-79.4227398479834,-77.0748746236094
0.247,0.43956635446869,0.539803362497687,120.60546875,-75.5524849166664,-75.8992207143744
0.248,0.41592874026838,0.54325530487977,121.09375,-77.3323788643008,-76.3766850971786
0.249,0.428620670393087,0.546887283421064,121.58203125,-89.8989241876801,-76.5040188980696
0.25,0.407836077449693,0.550701147328577,122.0703125,-80.9560013646274,-74.8276120678572
0.251,0.42614326110591,0.554698331883701,122.55859375,-75.8786285639906,-76.5912910002692
0.252,0.417824470353537,0.5588798413656,123.046875,-76.819486077532,-77.2910521179531
0.253,0.421574427389637,0.563246233658772,123.53515625,-86.0479642446042,-76.3396116934965
0.254,0.40862205695768,0.567797606651985,124.0234375,-82.8982103541643,-77.3163891208241
0.255,0.414911808135523,0.5725335865376,124.51171875,-76.3281344465359,-73.809717921993
0.256,0.406488155619533,0.577453318121964,125,-76.4593440497226,-77.0547044952657
0.257,0.413346714628027,0.582555457256218,125.48828125,-83.5257786035213,-79.4953792867704
0.258,0.40147748953894,0.587838165488825,125.9765625,-85.46626684413,-84.4144916529897
0.259,0.428598546079597,0.593299107023575,126.46484375,-76.9106974732022,-77.3147191616715
0.26,0.423949760511993,0.598935448040039,126.953125,-76.2354080607035,-75.0169768315816
0.261,0.427205157937363,0.604743858401378,127.44140625,-81.7128359280978,-78.2697679816536
0.262,0.434705210570633,0.610720515742558,127.9296875,-89.1481385802553,-77.9020273628875
0.263,0.44599949465757,0.616861111905778,128.41796875,-77.6413819910187,-77.2808947511088
0.264,0.425275430602483,0.623160861671664,128.90625,-76.1369371669252,-76.303444235491
0.265,0.415330467930743,0.629614513723447,129.39453125,-80.349486451934,-76.7019353470273
0.266,0.44204487573685,0.636216363773012,129.8828125,-95.4250765377112,-79.4649148104294
0.267,0.454052831984933,0.642960269767726,130.37109375,-78.5428329766437,-78.5948127298201
0.268,0.464953028836627,0.649839669083415,130.859375,-76.1575571431852,-76.3926481122671
0.269,0.464161126492397,0.656847597592847,131.34765625,-79.3034481121042,-73.7289262334002
0.27,0.46737950532416,0.663976710484253,131.8359375,-103.829540538977,-75.8706954136916
0.271,0.467338393258657,0.671219304693701,132.32421875,-79.6492360488669,-81.4018741294925
0.272,0.47014139456059,0.678567342809095,132.8125,-76.2944859381098,-76.4046995864684
0.273,0.490108336545193,0.686012478300399,133.30078125,-78.4988449000057,-75.648130443986
0.274,0.5026359805771,0.693546081927432,133.7890625,-93.585455573348,-75.9666651462637
0.275,0.510559081890377,0.701159269171308,134.27734375,-81.0137636177286,-76.5499713870776
0.276,0.52067562458053,0.708842928527365,134.765625,-76.5482110639327,-75.8362401374238
0.277,0.537786372042847,0.716587750486727,135.25390625,-77.8887241059989,-73.1445961062413
0.278,0.54624629637343,0.724384257022771,135.7421875,-88.5262622684752,-74.9150563522821
0.279,0.547892770724623,0.732222831391669,136.23046875,-82.7237477904423,-77.1191258873197
0.28,0.572171701838447,0.740093748056156,136.71875,-76.9225379783427,-76.009630070006
0.281,0.570560908291507,0.747987202549546,137.20703125,-77.4426272686168,-76.9420544444929
0.282,0.589846742672303,0.75589334111005,137.6953125,-85.4629592291583,-75.5694645357251
0.283,0.616024082478047,0.763802289929462,138.18359375,-84.9354465732413,-75.5634417006078
0.284,0.614848326035343,0.771704183871836,138.671875,-77.4250212816318,-74.6941714868656
0.285,0.63598113579161,0.779589194526379,139.16015625,-77.1403388289862,-78.757145212578
0.286,0.651680622376337,0.787447557465559,139.6484375,-83.3366409040913,-76.6595693780405
0.287,0.645167399314217,0.795269598586249,140.13671875,-87.9687195035038,-75.8363412719096
0.288,0.664274023036073,0.803045759419627,140.625,-78.0678886284299,-77.0463073511424
0.289,0.663469668591717,0.810766621305119,141.11328125,-76.9685075090566,-75.9333936169548
0.29,0.659983998172416,0.818422928335356,141.6015625,-81.7629803655514,-75.7487845672728
0.291,0.666162975373863,0.82600560899287,142.08984375,-92.6448390520994,-74.7338160824082
0.292,0.68711353902791,0.83350579641416,142.578125,-78.8697160335249,-76.5603128576099
0.293,0.659281031805843,0.840914847230632,143.06640625,-76.9187468392286,-74.0376547839521
0.294,0.68523096430419,0.848224358947956,143.5546875,-80.5615922188884,-76.5329081214112
0.295,0.687642565419987,0.855426185836179,144.04296875,-101.897332956874,-76.2909501411667
0.296,0.681722927853443,0.862512453314297,144.53125,-79.858397559368,-77.8902034740373
0.297,0.702777449806753,0.869475570825694,145.01953125,-76.986575085894,-77.2431606565345
0.298,0.729186062777517,0.876308243213752,145.5078125,-79.6341460752797,-77.5017595706634
0.299,0.730530017751413,0.883003480618235,145.99609375,-98.499030398587,-76.6056786901593
0.3,0.753530188582023,0.889554606921472,146.484375,-81.0765761481658,-75.7585691021511
0.301,0.760168956255566,0.895955266780204,146.97265625,-77.17088913462,-75.5732780268861
0.302,0.77158484135181,0.902199431285503,147.4609375,-78.9217521406364,-77.8803408188332
0.303,0.77862280042285,0.908281402299341,147.94921875,-91.3696757071593,-80.9102268462451
0.304,0.792924215182343,0.914195815520474,148.4375,-82.5922424728574,-79.0272118994044
0.305,0.817831909745933,0.91993764233226,148.92578125,-77.4738360675419,-73.7218034836556
0.306,0.80595262945791,0.925502190480301,149.4140625,-78.386954661664,-75.0525215298315
0.307,0.81503126597337,0.930885103619783,149.90234375,-87.5419899072753,-75.5391282925539
0.308,0.841644980134906,0.936082359763704,150.390625,-84.5215487264209,-78.2685653827874
0.309,0.819549876424917,0.941090268656534,150.87890625,-77.9010507959624,-76.5319676873549
0.31,0.84613909916952,0.945905468095385,151.3671875,-78.0050902638906,-74.7727987110178
0.311,0.82561675772009,0.950524919223596,151.85546875,-85.0182568906034,-75.4774706666553
0.312,0.85844296633501,0.95494590082877,152.34375,-87.0854223754076,-77.4149869737813
0.313,0.85733331276305,0.959166002686091,152.83203125,-78.4623187564833,-77.3384100281182
0.314,0.87678108578694,0.963183117994833,153.3203125,-77.7597605618507,-77.5733599676453
0.315,0.86700006762131,0.966995434958862,153.80859375,-83.1948487868505,-77.4470926530922
0.316,0.882538908782736,0.970601427559398,154.296875,-90.7838207059358,-78.8351754527578
0.317,0.883428580763443,0.97399984556054,154.78515625,-79.1728396995073,-78.7796423677244
0.318,0.899097491553653,0.977189703776788,155.2734375,-77.6403241672717,-80.0756420052481
0.319,0.92164352004004,0.980170270620023,155.76171875,-81.8171035835796,-77.7994987103766
0.32,0.920661218868223,0.982941055935096,156.25,-97.1498449610263,-76.2150663904614
0.321,0.9547792133753,0.985501798131589,156.73828125,-80.055471757759,-77.3895462606771
0.322,0.93494798799936,0.98785245062505,157.2265625,-77.640480932311,-76.5616312282499
0.323,0.973378243286563,0.98999316761146,157.71484375,-80.7547709450121,-73.7109269525049
0.324,0.974529027065987,0.991924289209336,158.203125,-105.050788567051,-74.9311801780105
0.325,1,0.993646326010897,158.69140625,-81.1447540527383,-77.6925494920229
0.326,0.98714635285564,0.995159943085881,159.1796875,-77.7575109389668,-78.7104147363108
0.327,0.991166375853453,0.996465943481125,159.66796875,-79.932949757599,-79.5557439834906
0.328,0.98446780961163,0.997565251260124,160.15625,-94.8545222156282,-78.8852884885723
0.329,0.992045989847783,0.998458894133334,160.64453125,-82.4944832475458,-80.3142168184281
0.33,0.94568755233205,0.999147985743754,161.1328125,-77.9919619769239,-77.2177790855637
0.331,0.96265006672799,0.999633707692167,161.62109375,-79.3052106132284,-76.561566588423
0.332,0.92954690166666,0.999917291408918,162.109375,-89.8532804653589,-76.6052919574774
0.333,0.931508477470437,1,162.59765625,-84.1931918379546,-78.4786967458046
0.334,0.923430651044607,0.999883110211275,163.0859375,-78.3477072587842,-73.9058026156169
0.335,0.917227631995613,0.999567894665225,163.57421875,-78.8414005582248,-77.7426251007901
0.336,0.91144457866087,0.999055604531679,164.0625,-86.8012123815945,-75.2969600074337
0.337,0.9149249757582,0.998347452800649,164.55078125,-86.3997445326633,-74.7932500675038
0.338,0.901562906112887,0.997444598333357,165.0390625,-78.8323874883137,-74.5281465884086
0.339,0.909295562464223,0.9963481308751,165.52734375,-78.521495369414,-74.1416966982397
0.34,0.88337169291465,0.995059057216228,166.015625,-84.6717521952889,-76.8031634241768
0.341,0.900763979291353,0.993578288680869,166.50390625,-89.4408147111977,-77.2111075322171
0.342,0.895191820698727,0.99190663010567,166.9921875,-79.458350143707,-78.0777105998724
0.343,0.90086131890122,0.990044770445121,167.48046875,-78.3322720723969,-77.1618576843055
0.344,0.877930877650436,0.98799327511143,167.96875,-83.0890196799962,-77.8354826638004
0.345,0.86300004780998,0.985752580130509,168.45703125,-94.1618116161054,-77.9515800450102
0.346,0.859172312173907,0.983322988173694,168.9453125,-80.2443498522213,-76.7693678121422
0.347,0.86396811908212,0.980704666507165,169.43359375,-78.2654372981399,-76.4494476621162
0.348,0.850896662698023,0.977897646885932,169.921875,-81.8757140260112,-77.6463556285389
0.349,0.831151008480997,0.97490182740583,170.41015625,-103.577833416522,-76.9732782976017
0.35,0.81096307981336,0.971716976315484,170.8984375,-81.2185634502466,-79.8537557251239
0.351,0.818446506192906,0.968342737781601,171.38671875,-78.3165838731908,-79.6022433700115
0.352,0.793910846874713,0.9647786395942,171.875,-80.934887176029,-77.1789802737768
0.353,0.78551095231841,0.961024102791187,172.36328125,-99.5454998071673,-75.9745115675835
0.354,0.79868343560146,0.957078453171829,172.8515625,-82.4241110035081,-76.1307556789013
0.355,0.768451971681773,0.952940934656101,173.33984375,-78.4846761721718,-78.6547457139192
0.356,0.77727735555408,0.948610724433335,173.828125,-80.2083584564727,-78.611970776236
0.357,0.756632166520513,0.944086949831086,174.31640625,-92.5409187761328,-76.4314354748636
0.358,0.75052687253574,0.939368706824467,174.8046875,-83.9298535687692,-75.3449182888732
0.359,0.75864505193964,0.934455080096822,175.29296875,-78.7719311714507,-75.8395329174244
0.36,0.750017100295806,0.929345164553226,175.78125,-79.6590731848544,-76.9617630585588
0.361,0.743977247377083,0.924038088177824,176.26953125,-88.7429395351978,-75.9333007058771
0.362,0.75307937268209,0.91853303611363,176.7578125,-85.8537066607875,-77.2276576899452
0.363,0.756598544510787,0.912829275828676,177.24609375,-79.1840659474755,-76.2944265753346
0.364,0.70931504632815,0.906926183216147,177.734375,-79.2626131851631,-82.2159654678496
0.365,0.732895599355973,0.900823269460231,178.22265625,-86.22444166536,-76.6450672655982
0.366,0.71708072564338,0.894520208485359,178.7109375,-88.4207556431324,-75.5926272279687
0.367,0.7171690406941,0.888016864794748,179.19921875,-79.7309731378143,-76.2554622339488
0.368,0.713929461977073,0.881313321494284,179.6875,-79.0027408647881,-79.5676783275776
0.369,0.67710117920838,0.874409908290156,180.17578125,-84.3972418188105,-76.7720128605591
0.37,0.688733778795046,0.86730722924363,180.6640625,-92.1433996107899,-77.539133741081
0.371,0.66588897881283,0.860006190064546,181.15234375,-80.4280042587733,-80.4222821769068
0.372,0.665610252544343,0.852508024726938,181.640625,-78.8689283139975,-79.3904087594745
0.373,0.646011134142287,0.844814321195835,182.12890625,-83.0115727138238,-80.7449720732699
0.374,0.65265005763124,0.836927046064002,182.6171875,-98.6090168128755,-82.2092710300694
0.375,0.637697718268257,0.828848567910542,183.10546875,-81.2982474192133,-80.9664177712811
0.376,0.61524270177273,0.820581679208406,183.59375,-78.854962723903,-79.5809319555828
0.377,0.616321933246727,0.812129616622303,184.08203125,-81.9391955877077,-76.7964740304843
0.378,0.608795065533556,0.803496079549792,184.5703125,-105.97832292331,-75.5096869507032
0.379,0.61545678074968,0.794685246765188,185.05859375,-82.3766138141793,-78.0435278152739
0.38,0.610605224588273,0.785701791029355,185.546875,-78.9581989139505,-78.4575630488549
0.381,0.601825597022247,0.776550891531512,186.03515625,-81.1061838393084,-79.2444793443542
0.382,0.595653900927677,0.767238244035453,186.5234375,-95.8670266655565,-77.5729176391154
0.383,0.595092586075343,0.757770068613883,187.01171875,-83.7175478508662,-78.2294889955669
0.384,0.585845496441933,0.748153114870538,187.5,-79.1792569871528,-79.7125958037123
0.385,0.583843930217017,0.738394664568742,187.98828125,-80.4666373579373,-79.0522199595022
0.386,0.58598640068902,0.728502531605814,188.4765625,-90.9275005230058,-77.5115522827121
0.387,0.558744419466387,0.718485059295433,188.96484375,-85.4108189616555,-76.0104825282837
0.388,0.566257630896543,0.708351114943836,189.453125,-79.5220894646855,-75.5525593372657
0.389,0.5570391215046,0.698110081729472,189.94140625,-79.9907168620952,-76.5158338195087
0.39,0.552567419971816,0.687771847917116,190.4296875,-87.8917189852674,-76.2065336300265
0.391,0.542527954058867,0.677346793455224,190.91796875,-87.6179745382092,-76.55740505061
0.392,0.531306811699247,0.666845774019596,191.40625,-79.9944343778953,-74.0434249715978
0.393,0.517601482800583,0.656280102578498,191.89453125,-79.6585982892361,-79.2898752213267
0.394,0.489844190268287,0.645661528565653,192.3828125,-85.7642895250674,-79.9850079317753
0.395,0.489532619984247,0.635002214758752,192.87109375,-90.6727252960138,-79.8502839534348
0.396,0.49947299210931,0.624314711972697,193.359375,-80.6087701836371,-77.7991584823442
0.397,0.485734768199917,0.613611931687276,193.84765625,-79.4571958842365,-77.9887463725031
0.398,0.481212711975597,0.602907116736382,194.3359375,-84.1775680149604,-82.0299444044891
0.399,0.469454579562337,0.592213810188458,194.82421875,-95.4456363864798,-76.0485337199458
0.4,0.467051826317623,0.581545822546558,195.3125,-81.3840416812746,-77.7620362454499
0.401,0.460165057710143,0.570917197394138,195.80078125,-79.3783180766818,-78.2221735073266
0.402,0.459557527471263,0.560342175612552,196.2890625,-82.9572867259283,-78.5596757504124
0.403,0.447295414408457,0.549835158298647,196.77734375,-105.027421808455,-77.1443460055564
0.404,0.46167969805386,0.539410668513233,197.265625,-82.3487213223366,-76.0365635604809
0.405,0.429723800327887,0.529083311989771,197.75390625,-79.4176406932086,-75.6325632620036
0.406,0.4606935364763,0.518867736926257,198.2421875,-82.0078669182468,-77.1194353519116
0.407,0.429445675652893,0.508778592974244,198.73046875,-100.371036638603,-77.8177878170482
0.408,0.426882791667387,0.498830489532087,199.21875,-83.5464224123996,-77.1006132950214
0.409,0.439137518359097,0.489037953449466,199.70703125,-79.5742037504745,-75.608382715231
0.41,0.390066517275257,0.479415386259346,200.1953125,-81.271835980745,-76.152386260955
0.411,0.378794100168903,0.469977021071193,200.68359375,-93.4916895769176,-77.2758127641676
0.412,0.379873163618217,0.460736879282474,201.171875,-85.0469006748515,-77.1423637367286
0.413,0.382500963373257,0.451708727289973,201.66015625,-79.8503020395389,-74.1200523434894
0.414,0.367360178173343,0.442906033404661,202.1484375,-80.7125435571824,-74.8549907537951
0.415,0.366240985439343,0.434341925192047,202.63671875,-89.7268985184193,-76.2672608950591
0.416,0.34577789062225,0.426029147474715,203.125,-86.969881682794,-77.9700249616592
0.417,0.323055057998377,0.41798002124599,203.61328125,-80.2517425804298,-77.1362707181051
0.418,0.331421776118507,0.41020640375286,204.1015625,-80.305821571149,-75.1356372025664
0.419,0.359946019918643,0.40271965000931,204.58984375,-87.2176308856637,-77.844157443049
0.42,0.341646825364903,0.395530575994395,205.078125,-89.5447294448014,-78.9088197441152
0.421,0.346361845516223,0.38864942377152,205.56640625,-80.7885330214893,-78.1309689851198
0.422,0.34115902135774,0.382085828739105,206.0546875,-80.0355987519259,-76.8986649154902
0.423,0.323098502285243,0.375848789192724,206.54296875,-85.3906695982748,-76.2810498540149
0.424,0.32209751695279,0.369946638349497,207.03125,-93.2967343373315,-75.2288720909126
0.425,0.327940537654393,0.364387018959481,207.51953125,-81.4761848038517,-75.4470738965175
0.426,0.301095085093277,0.359176860607038,208.0078125,-79.8914663736913,-76.9075445208321
0.427,0.30374046068511,0.354322359787458,208.49609375,-84.0010353745064,-77.6901200185497
0.428,0.304170511334453,0.349828962828906,208.984375,-99.8700171368082,-74.5629685424911
0.429,0.30795356090153,0.345701351713933,209.47265625,-82.338025133499,-74.8321314576012
0.43,0.332873682966507,0.341943432835254,209.9609375,-79.8673046591049,-79.3253897732164
0.431,0.32448228231437,0.338558328696879,210.44921875,-82.9224707406691,-78.004623144962
0.432,0.303760873870797,0.335548372547168,210.9375,-106.683354925677,-75.1392605518517
0.433,0.279268124639893,0.332915105909657,211.42578125,-83.409348635909,-77.6992997810353
0.434,0.324275287489847,0.330659278963246,211.9140625,-79.9605487858124,-79.058537024114
0.435,0.296654235526063,0.328780853715546,212.40234375,-82.0820149613772,-76.7315049317221
0.436,0.307724460012433,0.327279009909134,212.890625,-96.685983404739,-76.5727943846272
0.437,0.318708301410997,0.326152153597641,213.37890625,-84.7452641047837,-75.3163649709188
0.438,0.318279994016477,0.325397928324649,213.8671875,-80.1718967041425,-75.674226458119
0.439,0.324604902877413,0.325013228832222,214.35546875,-81.4342960862349,-75.2662512943232
0.44,0.320952626565793,0.324994217216629,214.84375,-91.8097631540466,-80.2819992503393
0.441,0.34553250667754,0.325336341436429,215.33203125,-86.4368080098992,-80.2066862448007
0.442,0.35476727305872,0.326034356064493,215.8203125,-80.5053857509022,-78.8495418010816
0.443,0.366549109852073,0.327082345163562,216.30859375,-80.9497903197627,-75.8468710361551
0.444,0.361107782038437,0.328473747157206,216.796875,-88.7932430209314,-75.7332206675957
0.445,0.355234443338967,0.330201381564622,217.28515625,-88.6482804248198,-76.3041659053151
0.446,0.358328232776267,0.332257477466648,217.7734375,-80.968856873585,-78.4871583474073
0.447,0.35515395406792,0.334633703568254,218.26171875,-80.6088768196016,-78.9466378963475
0.448,0.363642237783593,0.337321199717678,218.75,-86.6710400758117,-78.6763621945777
0.449,0.335475332841487,0.340310609734709,219.23828125,-91.7206499587917,-79.1784724635458
0.45,0.362374500351103,0.343592115392503,219.7265625,-81.574925402699,-76.7855986632097
0.451,0.332208106403753,0.34715547139151,220.21484375,-80.3986106356599,-74.4663423498245
0.452,0.352943567028073,0.350990041161789,220.703125,-85.0835272452687,-74.9182293295578
0.453,0.356611536131527,0.355084833330727,221.19140625,-96.5506823888513,-76.2848946495414
0.454,0.36007644956847,0.359428538694753,221.6796875,-82.3427329167393,-74.7050550596794
0.455,0.351533496859167,0.364009567534776,222.16796875,-80.3109058053985,-75.4630327271908
0.456,0.359419214575713,0.368816087115837,222.65625,-83.8594113024545,-74.3170245743026
0.457,0.35040872268308,0.373836059213405,223.14453125,-106.295962618198,-78.7369009764993
0.458,0.369918889169203,0.379057277512669,223.6328125,-83.3010556806974,-76.9346666928456
0.459,0.367754028863713,0.384467404732422,224.12109375,-80.3415250336993,-76.5626982642441
0.46,0.379294736243333,0.390054009329515,224.609375,-82.9044641279966,-78.1801503740479
0.461,0.397631535988027,0.395804601642159,225.09765625,-101.026716604576,-80.3035168493213
0.462,0.38425938886168,0.401706669331877,225.5859375,-84.4940119504512,-79.5364514798833
0.463,0.374724849622147,0.407747711987064,226.07421875,-80.4895878931918,-76.4664749660433
0.464,0.384192110459147,0.4139152747574,226.5625,-82.1619152833246,-73.8006694509301
0.465,0.39656264448381,0.420196980896728,227.05078125,-94.2713723177719,-79.5318172986335
0.466,0.410296438639653,0.426580563100645,227.5390625,-85.9922722370347,-76.2704105879528
0.467,0.409438536643203,0.43305389353291,228.02734375,-80.7574709442076,-75.7315940743924
0.468,0.414687082452597,0.439605012441802,228.515625,-81.5955177141498,-79.2402503929667
0.469,0.372520819036577,0.446222155274954,229.00390625,-90.5416789905795,-80.8071774537694
0.47,0.398685208184147,0.452893778209357,229.4921875,-87.9174151150281,-81.3602876727353
0.471,0.419969831242863,0.459608582022257,229.98046875,-81.1510752170356,-76.3479803716497
0.472,0.403453655650453,0.466355534238266,230.46875,-81.1813544824552,-75.7853550891769
0.473,0.4014427574899,0.473123889498431,230.95703125,-88.0441285132916,-75.7846094824353
0.474,0.389759867209117,0.479903208108741,231.4453125,-90.5032016192335,-76.5826610110191
0.475,0.39462148413433,0.486683372738164,231.93359375,-81.6805277004684,-77.1495812529719
0.476,0.421832622379313,0.493454603249056,232.421875,-80.9035226133047,-75.9031785050706
0.477,0.415625980518847,0.500207469654689,232.91015625,-86.2199929631486,-77.3166002845459
0.478,0.413001634919787,0.506932903208618,233.3984375,-94.2882710852473,-77.8792984986838
0.479,0.420453311506583,0.513622205639148,233.88671875,-82.3615046419354,-77.3704175215009
0.48,0.42593138818918,0.52026705655009,234.375,-80.7517349846085,-76.1123593077875
0.481,0.420022827728993,0.526859519019038,234.86328125,-84.828969982947,-76.2591977226186
0.482,0.436575479706563,0.533392043438262,235.3515625,-100.976012408967,-77.1355051631664
0.483,0.452511217470217,0.539857469661926,235.83984375,-83.21757836798,-75.4968813687528
0.484,0.453514559426463,0.546249027544858,236.328125,-80.7199674878255,-75.4502711140137
0.485,0.44524973351897,0.552560335978884,236.81640625,-83.7467491489165,-77.5323267017723
0.486,0.455212805667777,0.55878540054912,237.3046875,-107.213213547034,-75.4741740240989
0.487,0.45117834981938,0.564918609942875,237.79296875,-84.2844353686507,-75.7737140847661
0.488,0.444439611264733,0.570954731249432,238.28125,-80.8057384190734,-75.5885717438594
0.489,0.452165512435293,0.576888904292733,238.76953125,-82.9013235708932,-77.1727286362784
0.49,0.437390381672823,0.58271663514185,239.2578125,-97.3519711018196,-77.9038872735446
0.491,0.458137787244127,0.588433788944758,239.74609375,-85.6178627011009,-78.4087322959211
0.492,0.44985589546681,0.594036582226627,240.234375,-81.00982643505,-78.5129720770833
0.493,0.445902351054227,0.599521574782958,240.72265625,-82.2478453546366,-78.8088224220451
0.494,0.452609147341167,0.604885661281848,241.2109375,-92.5394616614747,-76.6800396565009
0.495,0.45410791625123,0.610126062671347,241.69921875,-87.3101914533317,-77.116754952726
0.496,0.444728450034537,0.615240317470444,242.1875,-81.3363566792177,-79.0295379263748
0.497,0.46256121497105,0.620226273007025,242.67578125,-81.7571053323591,-78.0300187879263
0.498,0.45416683643757,0.625082076653071,243.1640625,-89.5440096327166,-78.3326650587656
0.499,0.461707535996143,0.629806167095376,243.65234375,-89.528542618722,-79.1499970632796
0.5,0.469182654198673,0.634397265668114,244.140625,-81.7932762372218,-78.8167999972879
0.501,0.46671075623143,0.638854367761085,244.62890625,-81.409686492835,-79.2080908117873
0.502,0.494183489128513,0.643176734305011,245.1171875,-87.4291052685893,-79.7712753531349
0.503,0.490425055979113,0.647363883323764,245.60546875,-92.6213657631779,-79.3292968642281
0.504,0.501608693556573,0.651415581534021,246.09375,-82.3933409699225,-76.8919590176608
0.505,0.502919121228736,0.655331835967173,246.58203125,-81.1927860151519,-77.137454282186
0.506,0.488890230804083,0.659112885587709,247.0703125,-85.8429192352187,-76.6899679698936
0.507,0.49314810192577,0.662759192887525,247.55859375,-97.5127095704164,-76.7349220395787
0.508,0.50693308754345,0.666271435445886,248.046875,-83.155893733589,-80.3355248398516
0.509,0.500877688232483,0.669650497456665,248.53515625,-81.0984252386841,-77.9275963602416
0.51,0.4876003183457,0.672897461234162,249.0234375,-84.6170717699123,-77.1101888477861
0.511,0.509045997218317,0.676013598714083,249.51171875,-107.414908929279,-78.6631188510112
0.512,0.482324780268107,0.679000362968413,250,-84.1100207987444,-78.3337438028763
0.513,0.49199212196328,0.681859379754497,250.48828125,-81.1224556532981,-79.8736706824866
0.514,0.47852515630303,0.684592439121214,250.9765625,-83.6586643144582,-76.3531235768675
0.515,0.488109418834177,0.687201487097767,251.46484375,-101.546268402428,-75.435442786659
0.516,0.47349027530524,0.689688617490513,251.953125,-85.3003551979747,-75.8831180134883
0.517,0.49374164966049,0.692056063809039,252.44140625,-81.264078443519,-74.9343632123174
0.518,0.5084953098907,0.694306191335537,252.9296875,-82.9116206121085,-75.6106344899163
0.519,0.49000604241488,0.696441489344802,253.41796875,-94.9127687449972,-76.889907262126
0.52,0.510015446022387,0.698464563478288,253.90625,-86.7985006290592,-76.7286362645642
0.521,0.504481429094833,0.700378128274625,254.39453125,-81.5257541461175,-75.7895106126692
0.522,0.5152971097823,0.702184999858546,254.8828125,-82.3400939937561,-75.2270687372654
0.523,0.53140035414499,0.703888088787293,255.37109375,-91.2191735500165,-79.5650179269734
0.524,0.533518642898127,0.705490393046866,255.859375,-88.7279303144177,-78.8056773680612
0.525,0.528874318716767,0.706994991180562,256.34765625,-81.9134802189718,-77.185238040728
0.526,0.527344045443716,0.708405035520689,256.8359375,-81.9204179675021,-76.6650187853085
0.527,0.51182363072788,0.709723745484143,257.32421875,-88.7349399565534,-78.4773081700696
0.528,0.52809104958665,0.710954400886991,257.8125,-91.3269213207306,-80.1682675150412
0.529,0.53643484805934,0.712100335235865,258.30078125,-82.4375057593349,-80.2222869067137
0.53,0.527270724079983,0.713164928965737,258.7890625,-81.636858228841,-80.4749175260769
0.531,0.506739430204126,0.714151602611596,259.27734375,-86.9153616469816,-76.9756270993934
0.532,0.52234181424848,0.715063809920258,259.765625,-95.1479330932239,-78.4123687062711
0.533,0.509668110067557,0.715905030922923,260.25390625,-83.1136752243875,-78.8324839373545
0.534,0.499841259468157,0.716678764997714,260.7421875,-81.4792501862429,-76.7395353738123
0.535,0.512901617467907,0.717388523955687,261.23046875,-85.5247015793068,-77.0124967966272
0.536,0.49654867075811,0.718037825185275,261.71875,-101.956214787549,-76.1266590496067
0.537,0.495747844291907,0.718630184888933,262.20703125,-83.9658106830249,-76.6952675006658
0.538,0.516219919947037,0.719169111440715,262.6953125,-81.4416666394169,-77.5801938620882
0.539,0.517047886148197,0.719658098884619,263.18359375,-84.4405606388838,-79.6359996545843
0.54,0.517733185919413,0.720100620583032,263.671875,-107.601069440423,-78.988132815961
0.541,0.535563544449923,0.720500123016087,264.16015625,-85.0299976038519,-78.8084829130395
0.542,0.509235307361977,0.720860019728495,264.6484375,-81.521710447047,-77.1592815075282
0.543,0.533225399818157,0.721183685420324,265.13671875,-83.5918722787364,-76.7321854775361
0.544,0.54585364789318,0.72147445017918,265.625,-97.8925294705902,-77.7044609578644
0.545,0.548394994935473,0.721735593850519,266.11328125,-86.3627139764292,-77.7695729072172
0.546,0.52216281768869,0.721970340539868,266.6015625,-81.7202425892579,-77.8680411444024
0.547,0.53414570839369,0.722181853237838,267.08984375,-82.9343071960726,-79.2089007623067
0.548,0.52960646760085,0.722373228558819,267.578125,-93.1434474628692,-77.7494859694914
0.549,0.518361838342617,0.72254749158868,268.06640625,-88.057612134767,-76.387285759815
0.55,0.528943559926507,0.722707590844813,268.5546875,-82.0414778324135,-77.7618957873315
0.551,0.520594885022247,0.722856393361298,269.04296875,-82.4389687448638,-75.9952078210561
0.552,0.513372415835537,0.722996679920676,269.53125,-90.1701639806762,-76.7006532237041
0.553,0.526567348881946,0.723131140460547,270.01953125,-90.2847022227014,-77.2904498470466
0.554,0.506837108165427,0.723262369687456,270.5078125,-82.4934715090632,-77.509802703656
0.555,0.521373321940157,0.723392862932096,270.99609375,-82.086643200703,-76.9306195983005
0.556,0.513677932473473,0.723525012278702,271.484375,-88.0639435020157,-77.2974064056771
0.557,0.51700717557302,0.723661102997925,271.97265625,-93.4001429264001,-75.9058033674757
0.558,0.528974592569993,0.72380331030685,272.4609375,-83.0891226105912,-74.8172851571933
0.559,0.529250753707126,0.723953696472901,272.94921875,-81.8646701190758,-76.1724162415513
0.56,0.532818574198093,0.724114208271161,273.4375,-86.4805384257673,-76.6410600504403
0.561,0.530157775635517,0.724286674798389,273.92578125,-98.3563929323273,-78.0912118054617
0.562,0.557945997501143,0.724472805642534,274.4140625,-83.8479787675787,-76.0395158921751
0.563,0.543218893689777,0.724674189403882,274.90234375,-81.7651788250169,-78.088820031463
0.564,0.536854572976997,0.724892292562347,275.390625,-85.2544209170045,-78.8006582551742
0.565,0.541561358084796,0.725128458683763,275.87890625,-108.404375979714,-78.0516329818228
0.566,0.525710197837796,0.725383907955636,276.3671875,-84.7994415043497,-77.796084904277
0.567,0.551716321620987,0.725659737040372,276.85546875,-81.784110547533,-77.1425411389415
0.568,0.530714980600206,0.725956919233461,277.34375,-84.2939999559328,-79.057009402501
0.569,0.536267578612377,0.72627630491703,277.83203125,-101.952990865861,-76.884752607648
0.57,0.54239700958942,0.726618622305161,278.3203125,-85.9886675894291,-75.9906486001629
0.571,0.526543458186293,0.726984478483565,278.80859375,-81.9207492393179,-77.1678969691305
0.572,0.53408815985779,0.727374360749153,279.296875,-83.5438845064762,-77.0605431127925
0.573,0.51865139909645,0.727788638253575,279.78515625,-95.4386552469276,-78.1596224079014
0.574,0.534543225248517,0.728227563950429,280.2734375,-87.488211599222,-80.2811665367578
0.575,0.529927591602047,0.728691276840869,280.76171875,-82.1776407678765,-78.0026323653441
0.576,0.507008580603543,0.729179804507488,281.25,-82.9686244584431,-76.9722076555694
0.577,0.534479566160643,0.729693065920697,281.73828125,-91.78159996323,-77.7291584725723
0.578,0.5232840573179,0.73023087449533,282.2265625,-89.4234828469486,-78.8563246897245
0.579,0.52177121981342,0.73079294136925,282.71484375,-82.5608806265639,-78.7243569773016
0.58,0.551187814823797,0.731378878872802,283.203125,-82.5448022268853,-77.630216247671
0.581,0.540622101825753,0.7319882041591,283.69140625,-89.3117267162456,-79.3996112811891
0.582,0.54313775933501,0.732620342969405,284.1796875,-92.0373954873932,-79.0659756631178
0.583,0.56496818213944,0.733274633512785,284.66796875,-83.0808420200538,-77.3895367815485
0.584,0.567216447470557,0.733950330442249,285.15625,-82.2568517609205,-75.669353488701
0.585,0.54335475476475,0.734646608909076,285.64453125,-87.4978965003548,-76.825955183361
0.586,0.546960979832966,0.735362568672053,286.1328125,-95.8967168000191,-79.1568485266842
0.587,0.560287121259347,0.736097238229789,286.62109375,-83.7535402886284,-79.6445181143876
0.588,0.54922763912429,0.73684957893399,287.109375,-82.0947311831677,-79.0573109153672
0.589,0.562228161520447,0.737618489033019,287.59765625,-86.1088271789884,-77.887893649703
0.59,0.55800143013934,0.738402807590743,288.0859375,-102.831213042174,-78.5528448408279
0.591,0.557599905647137,0.739201318227632,288.57421875,-84.60305117693,-77.5455620449285
0.592,0.54026769212594,0.740012752640282,289.0625,-82.0526107396701,-75.3810269953997
0.593,0.5267123069099,0.740835793872198,289.55078125,-85.0239948032794,-74.9602147415524
0.594,0.532466264075393,0.741669079330991,290.0390625,-107.871015783571,-77.1662612946196
0.595,0.53570606687796,0.742511203571418,290.52734375,-85.6658656121849,-77.680031892839
0.596,0.541436726732543,0.743360720885134,291.015625,-82.1281786320779,-74.1606301183778
0.597,0.542837268564453,0.744216147752794,291.50390625,-84.1732590217633,-76.572268949886
0.598,0.540458263202057,0.74507596522128,291.9921875,-98.3270788526653,-78.5655266453103
0.599,0.54400569224993,0.745938621270198,292.48046875,-86.9991646547206,-80.0002154374748
0.6,0.553736671458703,0.746802533230512,292.96875,-82.3223791511603,-77.534837027479
0.601,0.569281273249237,0.747666090315909,293.45703125,-83.5128030015584,-76.7713953820324
0.602,0.572632912329286,0.748527656323854,293.9453125,-93.6407238002738,-75.0617349949117
0.603,0.56126460278244,0.749385572557346,294.43359375,-88.6979482670547,-74.4038903970192
0.604,0.573293025630157,0.750238161010339,294.921875,-82.6395179038961,-75.1829846114064
0.605,0.55454188337874,0.751083727851259,295.41015625,-83.0140398868499,-73.3050836229155
0.606,0.554158386171537,0.751920567232459,295.8984375,-90.6902578065801,-75.2149440979568
0.607,0.541165470541583,0.752746965449714,296.38671875,-90.9351848184054,-78.6255201517949
0.608,0.553691074386837,0.753561205473258,296.875,-83.0877600090231,-79.5471930420391
0.609,0.554238243656923,0.754361571866819,297.36328125,-82.6579581067081,-78.8976028653023
0.61,0.55680026922485,0.755146356100789,297.8515625,-88.5936622304496,-78.5203985234199
0.611,0.557175721392087,0.755913862250058,298.33984375,-94.0749768574379,-77.3926150127333
0.612,0.535106942774647,0.75666241304919,298.828125,-83.6801496477128,-78.402079481779
0.613,0.533507442782817,0.757390356263037,299.31640625,-82.4320392851293,-79.0082981653764
0.614,0.539916735740693,0.758096071323238,299.8046875,-87.0140601646276,-77.2264125663606
0.615,0.527954564830533,0.758777976180941,300.29296875,-99.0993701863011,-77.3546069676413
0.616,0.533720158520367,0.759434534330706,300.78125,-84.436442210708,-75.219111725293
0.617,0.544496450818397,0.760064261966108,301.26953125,-82.3285208920419,-77.5014653325625
0.618,0.53271129832806,0.7606657352314,301.7578125,-85.7887145976619,-78.213070887142
0.619,0.54510066946905,0.761237597534944,302.24609375,-109.276969216705,-77.3621250597591
0.62,0.56452696862976,0.761778566888972,302.734375,-85.3863592528903,-77.2487647173601
0.621,0.560209973909183,0.762287443237122,303.22265625,-82.3434343525393,-78.5858200259826
0.622,0.554456125014323,0.762763115726731,303.7109375,-84.8273197131553,-80.9055069769637
0.623,0.56608542489154,0.7632045698788,304.19921875,-102.26351226498,-82.1774202443755
0.624,0.556878900023173,0.763610894606924,304.6875,-86.5755898351077,-78.6544815178469
0.625,0.566306340429423,0.763981289038044,305.17578125,-82.4761470714227,-75.9594091277237
0.626,0.567245318843593,0.764315069091661,305.6640625,-84.0751602876029,-77.4649353647594
0.627,0.572796075037373,0.764611673778218,306.15234375,-95.8653674454785,-76.4205056503302
0.628,0.5661921141149,0.764870671180531,306.640625,-88.0776568718143,-75.5320380175574
0.629,0.562189640885763,0.765091764083505,307.12890625,-82.7292911517011,-74.765014359356
0.63,0.546784592003396,0.765274795216423,307.6171875,-83.4971784858654,-76.6247774219041
0.631,0.53501237944947,0.765419752068196,308.10546875,-92.2449342457916,-77.1632572161432
0.632,0.537508938582656,0.765526771229123,308.59375,-90.0199475449467,-78.0243080240189
0.633,0.561173227948673,0.765596142204121,309.08203125,-83.1090613020383,-80.1450529523156
0.634,0.53957479777536,0.765628310633694,309.5703125,-83.0702036500018,-79.8625110772228
0.635,0.533933863755963,0.765623880851902,310.05859375,-89.7900977773015,-84.1683366550913
0.636,0.545445835104033,0.765583617706111,310.546875,-92.6501369990736,-81.1750234803753
0.637,0.558177513043477,0.765508447561692,311.03515625,-83.625956426456,-79.5790352226561
0.638,0.55060776327707,0.765399458415725,311.5234375,-82.7788371470657,-79.2731389817433
0.639,0.564579609324813,0.765257899047284,312.01171875,-87.9828469047328,-78.9010060775126
0.64,0.546418311074527,0.765085177137596,312.5,-96.5498068121689,-77.128741939306
0.641,0.560443749254546,0.764882856301617,312.98828125,-84.2961650370861,-78.3727020514789
0.642,0.565153173466497,0.764652651983232,313.4765625,-82.6131596000184,-75.3512697044424
0.643,0.55480632180152,0.764396426178799,313.96484375,-86.5962460298575,-77.018418011443
0.644,0.565097023758723,0.764116180967203,314.453125,-103.615953688247,-79.4933792381115
0.645,0.57281870679765,0.763814050839078,314.94140625,-85.1440201314398,-78.0964098956719
0.646,0.56527575398588,0.763492293834492,315.4296875,-82.5674388618605,-78.2475815730313
0.647,0.555896818115653,0.76315328151875,315.91796875,-85.5116103614645,-76.7860723124377
0.648,0.56367978168214,0.762799487850231,316.40625,-108.040964434143,-77.2831704142722
0.649,0.574110384155687,0.762433477020865,316.89453125,-86.2064242661836,-76.700205404717
0.65,0.55386339126047,0.762057890376339,317.3828125,-82.6394488984043,-76.33233620352
0.651,0.54534802263581,0.761675432546565,317.87109375,-84.659711356357,-78.0788532171805
0.652,0.55315181158048,0.761288856934169,318.359375,-98.6696974363788,-76.3363384751861
0.653,0.555818281885126,0.760900950718126,318.84765625,-87.5412735075456,-75.96598326307
0.654,0.537554868986437,0.760514519531285,319.3359375,-82.8302179560406,-76.421495958944
0.655,0.5300960945368,0.760132371965815,319.82421875,-83.997238211988,-77.7518308336598
0.656,0.540938338112,0.759757304052195,320.3125,-94.045109038587,-77.783101873043
0.657,0.548257465266387,0.759392083847012,320.80078125,-89.2449419403046,-75.7103527965505
0.658,0.562333346459577,0.759039436254085,321.2890625,-83.1441433738099,-74.7609120345833
0.659,0.54721020308562,0.758702028192323,321.77734375,-83.4959108046294,-75.9115493626228
0.66,0.56050974300786,0.758382454212093,322.265625,-91.1178075048142,-80.4677950488443
0.661,0.553516931512723,0.758083222649231,322.75390625,-91.4934265470276,-79.9586365572569
0.662,0.54289854309523,0.757806742392122,323.2421875,-83.5895012853871,-75.5272411561436
0.663,0.56517149707013,0.757555310323195,323.73046875,-83.136918266198,-75.5066015144195
0.664,0.570125491875067,0.757331099483351,324.21875,-89.0314766279124,-78.4260216939629
0.665,0.5701271803417,0.757136147999068,324.70703125,-94.6590160418192,-76.448031734985
0.666,0.565401083969267,0.756972348809286,325.1953125,-84.1794828272317,-75.1336766081336
0.667,0.575257652706637,0.75684144023343,325.68359375,-82.9078836775746,-80.9187032453119
0.668,0.55750970371623,0.756744997430175,326.171875,-87.4564048991702,-78.6611932571735
0.669,0.553471993912957,0.756684424803733,326.66015625,-99.7545747297634,-76.1522830762589
0.67,0.55472487417152,0.756660949415943,327.1484375,-84.9340538631561,-75.6420844591277
0.671,0.555863749466027,0.756675615457189,327.63671875,-82.8011525230628,-76.5385466458804
0.672,0.543622816454573,0.75672927982077,328.125,-86.2325859275605,-77.0362337035984
0.673,0.527607283427243,0.756822608817407,328.61328125,-110.040037220924,-77.6974053361412
0.674,0.56105186656738,0.75695607606038,329.1015625,-85.8832605152792,-76.8999924105809
0.675,0.532707187291437,0.757129961545235,329.58984375,-82.8128466043836,-76.0475780513349
0.676,0.55278070548926,0.757344351938014,330.078125,-85.2709767824724,-76.452045348373
0.677,0.550921474143783,0.757599142071434,330.56640625,-102.489974342887,-74.4885689654426
0.678,0.555810008611883,0.757894037629943,331.0546875,-87.0733325215265,-75.2139297709878
0.679,0.547481893342867,0.758228558983487,331.54296875,-82.9424171985616,-77.4023662322954
0.68,0.56489936963263,0.758602046107925,332.03125,-84.5175284608575,-75.225855455973
0.681,0.554744481077713,0.759013664509297,332.51953125,-96.2048918965348,-77.4651735648917
0.682,0.556977023604533,0.759462412052792,333.0078125,-88.5787786056678,-79.5697157848552
0.683,0.569798827233293,0.759947126588365,333.49609375,-83.1925832970834,-78.5700667602878
0.684,0.565986530509427,0.760466494263938,333.984375,-83.9375708872085,-78.3320548543401
0.685,0.586831237607743,0.761019058421587,334.47265625,-92.6209226693956,-74.8092612261602
0.686,0.580495402885277,0.761603228977539,334.9609375,-90.5290062276171,-75.477755483435
0.687,0.581531668491453,0.762217292189698,335.44921875,-83.5696397638275,-76.1895877003877
0.688,0.559022805765113,0.76285942071664,335.9375,-83.5081781125762,-77.8420764443237
0.689,0.566889128635767,0.763527683872749,336.42578125,-90.1815466468857,-79.0031289668345
0.69,0.560450933945797,0.764220057989299,336.9140625,-93.1765787753278,-77.6654112030965
0.691,0.56456055009593,0.764934436802742,337.40234375,-84.084212566827,-76.4885497346452
0.692,0.544095267700767,0.765668641807409,337.890625,-83.2141178534926,-78.6226916613808
0.693,0.550735336611953,0.766420432526427,338.37890625,-88.3814565406593,-77.6168826317962
0.694,0.548349600512447,0.767187516668178,338.8671875,-97.1184190630309,-77.2910844458778
0.695,0.546582961068293,0.767967560143934,339.35546875,-84.7526654670403,-76.9950418914919
0.696,0.56372131386938,0.768758196925551,339.84375,-83.0455927953413,-77.0436310547731
0.697,0.552367778922477,0.769557038721924,340.33203125,-86.9979573852997,-80.2772331597556
0.698,0.553101619619037,0.770361684450806,340.8203125,-104.321509736574,-80.2953127448603
0.699,0.549049367386907,0.771169729480196,341.30859375,-85.5995921036066,-77.566760549627
0.7,0.56924249856036,0.771978774612092,341.796875,-82.9969683439311,-77.2102750786675
0.701,0.559683844431987,0.772786434782879,342.28515625,-85.9141679543143,-75.4031880583593
0.702,0.580027050083477,0.773590347460102,342.7734375,-108.124416834372,-76.4092093964457
0.703,0.563198010207833,0.77438818072487,343.26171875,-86.6623126906244,-78.2030732230901
0.704,0.579094228574113,0.775177641039931,343.75,-83.0661044449,-77.5942303074519
0.705,0.576078637454367,0.775956480711218,344.23828125,-85.0617570974684,-78.3421408150579
0.706,0.561008259790146,0.776722505052424,344.7265625,-98.9307825219318,-81.9423118700593
0.707,0.556174983597263,0.777473579257422,345.21484375,-87.9994502043809,-78.1364388601131
0.708,0.575846363035983,0.778207634975986,345.703125,-83.2541137487081,-74.9166989329338
0.709,0.567814782753256,0.778922676577166,346.19140625,-84.3979134607706,-78.0006453227283
0.71,0.5629665808069,0.779616787075115,346.6796875,-94.3668361351677,-80.5914187819649
0.711,0.565930165028483,0.780288133687387,347.16796875,-89.7087796541473,-80.0139584071433
0.712,0.543956465092343,0.780934972997994,347.65625,-83.5654860303919,-77.1215337516341
0.713,0.546393529887923,0.781555655706395,348.14453125,-83.8946604224613,-77.1864430103668
0.714,0.54479945400315,0.78214863095629,348.6328125,-91.4628361505846,-78.940657883446
0.715,0.533508532101083,0.78271245025093,349.12109375,-91.9693986271572,-79.5027626750748
0.716,0.545660757011433,0.783245770972454,349.609375,-84.0086094894287,-78.0598280488452
0.717,0.56812331471914,0.783747359531128,350.09765625,-83.5333861898489,-78.5962491229282
0.718,0.565799132291307,0.784216094175861,350.5859375,-89.387197077339,-80.1275037993869
0.719,0.559544992677223,0.78465096749964,351.07421875,-95.1620326103998,-79.2424970182007
0.72,0.5749185191416,0.785051088671497,351.5625,-84.5968238168132,-79.3099423790345
0.721,0.568797086739903,0.785415685420491,352.05078125,-83.3018545153879,-79.5157599116099
0.722,0.576890141361736,0.78574410578774,352.5390625,-87.817173586698,-77.2058831026559
0.723,0.564932552064187,0.786035819651225,353.02734375,-100.331653871633,-77.3829606674555
0.724,0.572625134272677,0.786290420015911,353.515625,-85.3503079130508,-77.9492455697357
0.725,0.550335520439323,0.786507624049901,354.00390625,-83.1925185992516,-75.9490312859691
0.726,0.568336271467083,0.786687273836721,354.4921875,-86.5954308500169,-78.1012109687108
0.727,0.579915643300263,0.786829336805323,354.98046875,-110.697129369128,-77.2961758284496
0.728,0.569650730172727,0.786933905793412,355.46875,-86.2994368859874,-76.4516881398808
0.729,0.554202891442033,0.787001198696687,355.95703125,-83.2015906387931,-75.3415056408415
0.73,0.540982526446757,0.787031557656865,356.4453125,-85.6341666987034,-75.335112261571
0.731,0.569916163785383,0.787025447745041,356.93359375,-102.641368275826,-75.7032468621993
0.732,0.55823304724541,0.786983455104106,357.421875,-87.4909894879216,-76.0379052497054
0.733,0.548659319490973,0.786906284524447,357.91015625,-83.328606048494,-80.2363995642274
0.734,0.551968685315717,0.786794756439242,358.3984375,-84.8799887148149,-78.8255387533784
0.735,0.54667921124747,0.786649803337181,358.88671875,-96.4661498028738,-77.4734960086986
0.736,0.568671755640853,0.786472465600337,359.375,-89.0004778715532,-76.5128025936924
0.737,0.57793334654631,0.786263886783871,359.86328125,-83.5763712132129,-75.7967568666318
0.738,0.554153321003077,0.786025308363681,360.3515625,-84.2986099562177,-78.2158903497174
0.739,0.542568898439643,0.785758063988145,360.83984375,-92.9183207301543,-77.8234200262448
0.74,0.55447583941038,0.785463573278713,361.328125,-90.9593729956469,-78.1999304684321
0.741,0.56101300625095,0.785143335228027,361.81640625,-83.951281951211,-75.1508334788829
0.742,0.541486056004627,0.784798921241362,362.3046875,-83.8673468349153,-74.5640330621142
0.743,0.574531449671536,0.784431967858324,362.79296875,-90.4946480148027,-78.7126057329599
0.744,0.568383318714657,0.784044169179871,363.28125,-93.6252574613342,-77.8321177144611
0.745,0.580540618760227,0.783637269015496,363.76953125,-84.4640925272555,-76.1861929150787
0.746,0.574914635963407,0.783213052760799,364.2578125,-83.5711322149189,-76.8896716953517
0.747,0.566752107518577,0.782773339018741,364.74609375,-88.7021196475061,-78.879458515855
0.748,0.570828789260263,0.782319970986879,365.234375,-97.6109442613373,-78.1792420136887
0.749,0.570779520359667,0.781854807644017,365.72265625,-85.1313439086399,-76.3091601723886
0.75,0.567716725911227,0.781379714778885,366.2109375,-83.4002902745031,-78.6543229441254
0.751,0.54767420374676,0.780896555908805,366.69921875,-87.3221780528133,-77.0109833640878
0.752,0.563963153798953,0.780407183138062,367.1875,-104.956178414139,-76.4719339681133
0.753,0.556378857523643,0.779913428005935,367.67578125,-85.9778936671364,-77.0694132955334
0.754,0.542974974697137,0.779417092375325,368.1640625,-83.3492837904236,-77.2679111575313
0.755,0.56275329063805,0.778919939416359,368.65234375,-86.239710541838,-78.5449133382299
0.756,0.554522548654563,0.778423684745499,369.140625,-108.131608899127,-76.7971063794154
0.757,0.545303003061003,0.777929987787517,369.62890625,-87.0414856506841,-74.739955294824
0.758,0.549888387076553,0.777440443431998,370.1171875,-83.4160587807482,-77.8727730500866
0.759,0.566113138970947,0.776956574055341,370.60546875,-85.387269030026,-78.2129496679348
0.76,0.559082874866373,0.776479821974803,371.09375,-99.1180897386709,-78.0642780309756
0.761,0.58005533876339,0.776011542397565,371.58203125,-88.3814817161278,-80.3804534166969
0.762,0.571693293734677,0.775552996929219,372.0703125,-83.6018126304445,-80.4401219212026
0.763,0.585549835136313,0.775105347712657,372.55859375,-84.7225349844788,-79.6424291549912
0.764,0.557852980580563,0.774669652275212,373.046875,-94.6135562858101,-79.0778091922922
0.765,0.570667507145846,0.774246859163199,373.53515625,-90.0970850268646,-78.6460189378955
0.766,0.575106336088807,0.773837804435669,374.0234375,-83.9111281420367,-76.1021990945407
0.767,0.56488763108936,0.773443209075263,374.51171875,-84.2178319680493,-76.3240514280253
0.768,0.55945147547605,0.773063677358124,375,-91.7328438786754,-77.6814079299345
0.769,0.578664007579567,0.772699696210601,375.48828125,-92.3705675695917,-78.2201626895837
0.77,0.561135545950777,0.772351635568646,375.9765625,-84.3525065259053,-76.611763311003
0.771,0.555296840606217,0.772019749745382,376.46484375,-83.8547455361171,-76.9008938977638
0.772,0.575190243792,0.771704179801824,376.953125,-89.6681678251883,-76.0200601705487
0.773,0.548401078312733,0.77140495690419,377.44140625,-95.5913511408929,-77.7697629609232
0.774,0.539097084545693,0.771122006637811,377.9296875,-84.9394375303262,-77.4897924452229
0.775,0.56360259346982,0.770855154231598,378.41796875,-83.6211792249872,-76.5939465697434
0.776,0.548926462923233,0.770604130628731,378.90625,-88.1035559323788,-75.0923321345796
0.777,0.53911385836806,0.770368579321042,379.39453125,-100.837867071818,-76.6842491504954
0.778,0.565084690961963,0.770148063849979,379.8828125,-85.6923155750655,-77.4992527305518
0.779,0.552761565962447,0.769942075869016,380.37109375,-83.5096935510592,-76.1718408908119
0.78,0.56605602794395,0.769750043661356,380.859375,-86.8842871465439,-78.3922842659594
0.781,0.56427024562895,0.769571341010193,381.34765625,-111.249057502287,-77.3868653018576
0.782,0.56798260135641,0.769405296323428,381.8359375,-86.6418491221025,-79.1997297944558
0.783,0.579744303944453,0.769251201917894,382.32421875,-83.5165910280019,-80.8997811104799
0.784,0.555086347710807,0.769108323369865,382.8125,-85.9237782288637,-80.6087552945135
0.785,0.57993293869194,0.768975908840107,383.30078125,-102.724384828215,-77.3472790618459
0.786,0.58811547207931,0.768853198283731,383.7890625,-87.8353742990185,-78.2188347946887
0.787,0.551483015902507,0.768739432457976,384.27734375,-83.6414913782098,-78.5185934134309
0.788,0.575953586132646,0.768633861644677,384.765625,-85.1692837469396,-79.5494888569939
0.789,0.554151277162633,0.768535754007935,385.25390625,-96.6558158944441,-78.4167364873175
0.79,0.552587829389857,0.768444403511569,385.7421875,-89.3494245374528,-77.8571780405145
0.791,0.559229021269797,0.768359137326593,386.23046875,-83.8872887941768,-76.1077699580661
0.792,0.564308503582693,0.768279322668235,386.71875,-84.5868952227226,-77.4810897054092
0.793,0.544016936514903,0.768204373016377,387.20703125,-93.1436854942662,-79.5464206373344
0.794,0.543366366425013,0.768133753692537,387.6953125,-91.3175784479269,-77.2619595162782
0.795,0.551650574091487,0.768066986788497,388.18359375,-84.2604807621393,-77.3406119686951
0.796,0.549049720569797,0.768003655462568,388.671875,-84.1541690117627,-77.4703448734748
0.797,0.544369176271116,0.767943407635436,389.16015625,-90.7358248902217,-76.0016804403028
0.798,0.552160944675327,0.767885959125123,389.6484375,-94.0025728208584,-74.5847139663381
0.799,0.55843778344965,0.767831096258406,390.13671875,-84.7719509976732,-75.1961200008268
0.8,0.563001701308253,0.767778677985085,390.625,-83.8562018457019,-76.9356928643822
0.801,0.541364553119137,0.767728637505786,391.11328125,-88.9511239929653,-77.2842881686991
0.802,0.560842992613237,0.76768098340915,391.6015625,-98.033683216627,-79.5455913680982
0.803,0.571194314631127,0.767635800304859,392.08984375,-85.438419564417,-81.152191359658
0.804,0.584857418216733,0.767593248936312,392.578125,-83.6834387465288,-80.223529610407
0.805,0.564639512860503,0.76755356575945,393.06640625,-87.5750621193357,-79.7530133655705
0.806,0.56823864862934,0.767517061979388,393.5546875,-105.526184983934,-78.275458986224
0.807,0.59117862364659,0.767484122041849,394.04296875,-86.285011211556,-76.7127015583567
0.808,0.584903339073747,0.767455201580859,394.53125,-83.6304396013661,-77.8491455116853
0.809,0.563648176203233,0.767430824827318,395.01953125,-86.4942607381839,-78.2279391272517
0.81,0.54667905687179,0.767411581485217,395.5078125,-108.070282954971,-79.5982681146851
0.811,0.551856271614473,0.767398123083057,395.99609375,-87.3498993985812,-79.837797814122
0.812,0.538116561467017,0.767391158807794,396.484375,-83.6952365167723,-78.3986508037976
0.813,0.544750276379266,0.76739145082847,396.97265625,-85.6421406571994,-78.1287017159586
0.814,0.54889185339385,0.767399809118874,397.4609375,-99.2374053782435,-77.5740656231912
0.815,0.55427657272171,0.767417085794703,397.94921875,-88.6931969583202,-78.8345084957672
0.816,0.54220596749975,0.767444168990172,398.4375,-83.8791118690527,-75.2061092539059
0.817,0.549829986937287,0.767481976309926,398.92578125,-84.9768695467035,-76.4754423311222
0.818,0.558169200790757,0.767531447901333,399.4140625,-94.7909897176806,-77.3399645484774
0.819,0.543692325569053,0.767593539198259,399.90234375,-90.4155629429685,-77.1404705399106
0.82,0.54150001342782,0.767669213389997,400.390625,-84.1867420098695,-77.4571089354886
0.821,0.570766359952883,0.767759433669266,400.87890625,-84.4710677981808,-80.1475853603309
0.822,0.57144059916785,0.767865155312409,401.3671875,-91.9334384014473,-80.0625055938262
0.823,0.552778085541343,0.767987317644034,401.85546875,-92.7025194887612,-78.8273405135262
0.824,0.560441272752363,0.768126835938252,402.34375,-84.6267420409477,-78.7341814310578
0.825,0.590600405721883,0.768284593309382,402.83203125,-84.1065165319957,-77.3037533152356
0.826,0.57903530393001,0.768461432645354,403.3203125,-89.8798780869621,-75.8689305169341
0.827,0.564885356886553,0.768658148636007,403.80859375,-95.9524537329102,-78.2052898178268
0.828,0.565205589941377,0.768875479945904,404.296875,-85.212753214085,-78.5259939581633
0.829,0.564548595866907,0.76911410157841,404.78515625,-83.871258119053,-78.3388935128943
0.83,0.556459423118257,0.76937461747671,405.2734375,-88.3209228139876,-76.5550966647789
0.831,0.56367108984401,0.769657553409811,405.76171875,-101.278672260011,-76.1375222004121
0.832,0.5613400384204,0.769963350197062,406.25,-85.9653879092491,-75.6967577798414
0.833,0.54031737145562,0.770292357331731,406.73828125,-83.7579599295734,-76.754389518416
0.834,0.55436811937439,0.770644827069937,407.2265625,-87.1044088468005,-77.1805070471803
0.835,0.539503006575026,0.771020909053103,407.71484375,-111.69477527764,-79.4131399400007
0.836,0.551563065579887,0.771420645527582,408.203125,-86.9156923008469,-78.3194600879121
0.837,0.55131078798786,0.771843967214045,408.69140625,-83.7630146522349,-77.028338524619
0.838,0.534003348775273,0.772290689863965,409.1796875,-86.1449503902826,-79.4014905316242
0.839,0.566017784121047,0.772760511525055,409.66796875,-102.74397110502,-78.258494705409
0.84,0.548633642557043,0.773253010525472,410.15625,-88.111568319186,-76.3312901755991
0.841,0.54947770862262,0.773767644179138,410.64453125,-83.8861264276651,-74.4739271616808
0.842,0.58338225279028,0.77430374821072,411.1328125,-85.3904394795292,-76.7283016137926
0.843,0.57156743541411,0.774860536896376,411.62109375,-96.7788555360232,-75.5117870834151
0.844,0.55586347416966,0.775437103914073,412.109375,-89.6305888080024,-74.638903913073
0.845,0.578737103440673,0.776032423895151,412.59765625,-84.130277612814,-75.556615336683
0.846,0.566348164240527,0.776645354667352,413.0859375,-84.8073414277699,-80.0683085868311
0.847,0.570321403615233,0.777274640178291,413.57421875,-93.3018961901565,-77.8849104955078
0.848,0.57881474204984,0.777918914085355,414.0625,-91.6084852020503,-77.3276764963043
0.849,0.564490113415867,0.778576703991387,414.55078125,-84.5020680218846,-76.7302909684097
0.85,0.550316969233277,0.779246436295258,415.0390625,-84.37345008275,-78.0298324369594
0.851,0.54379060652313,0.779926441615572,415.52734375,-90.9098534283151,-81.9246297798734
0.852,0.537483454728103,0.780614960738234,416.015625,-94.3132877136096,-79.0014733257079
0.853,0.54394475693426,0.781310151037231,416.50390625,-85.0125119277228,-75.6373548784366
0.854,0.54219446557434,0.782010093321856,416.9921875,-84.0740247185522,-74.2126174497729
0.855,0.569404657254413,0.782712799069287,417.48046875,-89.1331405296318,-73.8690569737105
0.856,0.539988639314803,0.783416218005791,417.96875,-98.3913317221104,-77.0416225690279
0.857,0.536087202220557,0.784118246001835,418.45703125,-85.6785103433028,-78.318412729169
0.858,0.563383310665243,0.784816733246596,418.9453125,-83.8996305024039,-74.051145629915
0.859,0.556658790492783,0.785509492666919,419.43359375,-87.7611759655429,-74.4061654787521
0.86,0.57374770724703,0.78619430855534,419.921875,-106.036142898498,-76.8226044269132
0.861,0.553791093220507,0.786868945371134,420.41015625,-86.5254584243347,-76.4036309312949
0.862,0.586102081736533,0.78753115667823,420.8984375,-83.8449241211424,-76.8010905482707
0.863,0.559125796766813,0.78817869418531,421.38671875,-86.6822816722441,-78.4173212559116
0.864,0.57014417744661,0.788809316857195,421.875,-107.946223353334,-78.4312472766718
0.865,0.568837559121837,0.789420800071417,422.36328125,-87.591965252962,-80.1230051105685
0.866,0.56076406199232,0.790010944796896,422.8515625,-83.9080237365602,-80.8633789548573
0.867,0.570502271826823,0.790577586770196,423.33984375,-85.8307333678504,-80.7348439882503
0.868,0.568674348313773,0.791118605637759,423.828125,-99.2929913165652,-79.6567494661993
0.869,0.558245786838897,0.791631934021478,424.31640625,-88.9389068956219,-79.6145679924344
0.87,0.575773369007497,0.792115566453868,424.8046875,-84.0902969255711,-80.4207553714507
0.871,0.556385874550823,0.792567568122442,425.29296875,-85.1651783501383,-79.2372902228576
0.872,0.537257173276037,0.79298608336293,425.78125,-94.9033569532079,-78.8566809072225
0.873,0.55410958311732,0.793369343846161,426.26953125,-90.6684265875286,-77.2006668769377
0.874,0.542125813371603,0.79371567640933,426.7578125,-84.39651406584,-75.6377344560072
0.875,0.52283557240193,0.794023510484886,427.24609375,-84.6585304733617,-76.9303751848052
0.876,0.558555263139853,0.794291385078535,427.734375,-92.0687533221614,-77.644574709714
0.877,0.544103332732663,0.79451795524534,428.22265625,-92.9693744444009,-79.3045503789784
0.878,0.569751720199283,0.794701998014206,428.7109375,-84.835404990485,-76.7960558454529
0.879,0.559730435576983,0.794842417718845,429.19921875,-84.2927646101613,-77.9984858141817
0.88,0.5659979766289,0.794938250706845,429.6875,-90.0263679107592,-78.2517942863683
0.881,0.571438873609127,0.794988669415045,430.17578125,-96.2493820064722,-78.8155923474677
0.882,0.57494257444903,0.794992985816581,430.6640625,-85.4207638682727,-78.9095433291703
0.883,0.5578432256119,0.794950654260813,431.15234375,-84.0560609794726,-78.9353279583604
0.884,0.536716880518533,0.794861273740138,431.640625,-88.4732201218373,-76.7168380655663
0.885,0.566039665377977,0.794724589625515,432.12890625,-101.658115767637,-79.1338496134214
0.886,0.563315026320766,0.794540494913421,432.6171875,-86.1734234623064,-78.4719015761001
0.887,0.5669544736853,0.794309031020945,433.10546875,-83.9411933029102,-77.7914335691161
0.888,0.568742877692893,0.794030388155172,433.59375,-87.2596484327588,-79.4483378972115
0.889,0.56743463561887,0.793704905271802,434.08203125,-112.032180204471,-78.0242886802328
0.89,0.57671045287108,0.793333069629122,434.5703125,-87.1247720319222,-77.4411748437262
0.891,0.544913454040403,0.792915515938331,435.05859375,-83.9446442624283,-76.0039368245246
0.892,0.5491790673938,0.792453025109338,435.546875,-86.3014433820651,-77.3048879863568
0.893,0.558139405328543,0.791946522591098,436.03515625,-102.70370139099,-76.453529896391
0.894,0.544208542181716,0.791397076306296,436.5234375,-88.3232858312444,-75.6844823663309
0.895,0.53310912330361,0.790805894180651,437.01171875,-84.0662024876321,-77.1299290198142
0.896,0.54758601314926,0.790174321266891,437.5,-85.5471250625222,-75.8238752381558
0.897,0.53607070849245,0.789503836462352,437.98828125,-96.8388826755417,-77.2150564460277
0.898,0.56531589149602,0.788796048817841,438.4765625,-89.8475955684093,-80.4865470975037
0.899,0.538726194004893,0.788052693434032,438.96484375,-84.3089388190491,-80.6381786106965
0.9,0.56314969059221,0.7872756269404,439.453125,-84.9635279258774,-78.2087079446198
0.901,0.56935745315954,0.786466822549407,439.94140625,-93.3965013912313,-79.4166242796477
0.902,0.55741559436643,0.785628364674844,440.4296875,-91.8356317629642,-80.8245935775848
0.903,0.565061927669747,0.784762443097849,440.91796875,-84.6795560243081,-78.1977142142355
0.904,0.569697265372147,0.783871346659253,441.40625,-84.5286808479331,-77.8457273097774
0.905,0.567106246584467,0.782957456455121,441.89453125,-91.0201997825674,-75.6648981449287
0.906,0.56598226559318,0.782023238516181,442.3828125,-94.5608617662904,-76.4170878548378
0.907,0.586788803865056,0.781071235960955,442.87109375,-85.1892000109511,-77.1925447746839
0.908,0.580259974857467,0.780104060625125,443.359375,-84.2280042941612,-76.1275586374746
0.909,0.543919815271313,0.779124384183914,443.84765625,-89.2515502688999,-76.3997781896239
0.91,0.54697745127319,0.778134928799865,444.3359375,-98.6873043136088,-77.4996700535653
0.911,0.53540679561902,0.777138457345052,444.82421875,-85.8549545756022,-77.7335588128301
0.912,0.527536041681607,0.776137763262811,445.3125,-84.0521828474324,-78.0114743970726
0.913,0.529839450607923,0.77513566014525,445.80078125,-87.8838154734024,-80.1542508834886
0.914,0.542018381190587,0.774134971105447,446.2890625,-106.489355376253,-80.0901561317379
0.915,0.540143040613923,0.773138518017532,446.77734375,-86.7024885126116,-77.4305082098627
0.916,0.55588696564731,0.772149110688764,447.265625,-83.9959696507107,-77.0814163067231
0.917,0.549158244598153,0.771169536021259,447.75390625,-86.8069848176193,-75.4758692076719
0.918,0.549901230621657,0.770202547221352,448.2421875,-107.763633655117,-76.8575697239616
0.919,0.55353188225269,0.769250853121478,448.73046875,-87.7708525913768,-79.1464847654799
0.92,0.55417908378595,0.768317107690146,449.21875,-84.0575688547652,-81.3834885828425
0.921,0.53336845654598,0.767403899815088,449.70703125,-85.9561751612061,-78.9336924524507
0.922,0.569016019408413,0.766513743448381,450.1953125,-99.2878821749264,-78.0560056502664
0.923,0.567496215392116,0.765649068197156,450.68359375,-89.1216985565972,-78.1886054176422
0.924,0.580200129122583,0.764812210430822,451.171875,-84.238433414443,-79.2644685175812
0.925,0.563182118251876,0.764005404960341,451.66015625,-85.2905069149794,-78.9717630069158
0.926,0.582589760174583,0.76323077733293,452.1484375,-94.9536669048916,-77.7634720307547
0.927,0.572868872644493,0.762490336779102,452.63671875,-90.8586827210706,-76.3297671993827
0.928,0.549652255586643,0.76178596984613,453.125,-84.5434281805247,-76.8164849390914
0.929,0.563399592506263,0.761119434748129,453.61328125,-84.7831840374667,-80.3846528467572
0.93,0.56611742710878,0.760492356454897,454.1015625,-92.1417275569345,-81.2866489347773
0.931,0.55970551143003,0.759906222530366,454.58984375,-93.17406319839,-78.5644619239252
0.932,0.552328273277677,0.759362379720859,455.078125,-84.9813985317603,-75.7436859821796
0.933,0.537158724344483,0.758862031286533,455.56640625,-84.4163733269848,-75.5140748408845
0.934,0.55063453063148,0.758406235066309,456.0546875,-90.1104992245161,-74.6938321199632
0.935,0.551420157674163,0.75799590226448,456.54296875,-96.4850055523636,-74.3307495640744
0.936,0.539738027242107,0.757631796942912,457.03125,-85.5662929488822,-76.8356951397515
0.937,0.547716471982957,0.757314536195155,457.51953125,-84.1783918411907,-78.270435022718
0.938,0.56808129456127,0.757044590969003,458.0078125,-88.5632316863311,-77.2138771355311
0.939,0.555970627681853,0.756822287493372,458.49609375,-101.979092618504,-75.378447386714
0.94,0.568726852107427,0.756647809254179,458.984375,-86.319166997436,-74.3601327659244
0.941,0.573848281121793,0.756521199452445,459.47265625,-84.062119124333,-77.1713920674455
0.942,0.536341320447713,0.756442363867832,459.9609375,-87.3527118783653,-76.1392228473868
0.943,0.553217487099853,0.756411074045798,460.44921875,-112.25886557466,-76.3553371612536
0.944,0.58025719661279,0.756426970729319,460.9375,-87.2717554235436,-77.5289132751091
0.945,0.571083891714623,0.756489567466619,461.42578125,-84.0641276424398,-77.0050025098089
0.946,0.563164630042087,0.75659825434138,461.9140625,-86.39588595361,-75.1601642976757
0.947,0.559328543576137,0.756752301786819,462.40234375,-102.60602445599,-74.7124250483373
0.948,0.582980369639967,0.756950864456762,462.890625,-88.4731174375359,-75.8399315027115
0.949,0.563541411862457,0.757192985135512,463.37890625,-84.1842905576286,-78.3750679890127
0.95,0.538617628273833,0.75747759867636,463.8671875,-85.6418927762596,-81.1219960607445
0.951,0.53948892172366,0.757803535967965,464.35546875,-96.8383983139816,-78.2233701541167
0.952,0.556958795112603,0.758169527938922,464.84375,-90.0029604092243,-77.0830795582823
0.953,0.540055586557633,0.758574209621355,465.33203125,-84.4257674872804,-75.2451423261378
0.954,0.548236463446003,0.75901612430179,465.8203125,-85.0579313178395,-76.3323793921161
0.955,0.537899148561083,0.759493727790189,466.30859375,-93.4299501163704,-77.8445777948678
0.956,0.54565755776518,0.76000539283596,466.796875,-92.0014613483934,-76.5513873343937
0.957,0.546688605717096,0.760549413713561,467.28515625,-84.7953647548444,-78.3238259029602
0.958,0.55180913427328,0.761124010991006,467.7734375,-84.6222630180175,-82.7754377775811
0.959,0.546871159512803,0.761727336483373,468.26171875,-91.0692440902597,-77.617310721214
0.96,0.56361272756345,0.762357478381884,468.75,-94.7476731637198,-75.7205962474126
0.961,0.558876668769443,0.763012466538937,469.23828125,-85.3043609621372,-74.2286474359597
0.962,0.559369186425897,0.763690277882291,469.7265625,-84.3204681684377,-75.4982637002082
0.963,0.561196091079253,0.764388841928581,470.21484375,-89.3086613635775,-76.4503198231391
0.964,0.56692586617127,0.76510604636762,470.703125,-98.9239492195657,-75.2601176899665
0.965,0.57659972467527,0.765839742693597,471.19140625,-85.9700245162037,-75.3489545829607
0.966,0.575884773204757,0.766587751865838,471.6796875,-84.1433500178168,-76.6601094650265
0.967,0.559976419481303,0.767347869988709,472.16796875,-87.9452163938056,-77.2765548374089
0.968,0.570867449761327,0.768117874006518,472.65625,-106.888008015841,-75.3727616052767
0.969,0.553759182902397,0.768895527414231,473.14453125,-86.8183010966013,-75.3063550877488
0.97,0.559610197512913,0.769678585987017,473.6328125,-84.085757799014,-75.9416632923873
0.971,0.55047605976703,0.770464803529549,474.12109375,-86.8705338187005,-80.5735518530151
0.972,0.551372706611873,0.77125193763919,474.609375,-107.525401795037,-81.6209075377169
0.973,0.537070862323757,0.772037755468359,475.09765625,-87.8886892908944,-79.968411194128
0.974,0.546114777690866,0.772820039464381,475.5859375,-84.145981562277,-77.0375108416434
0.975,0.549066520883663,0.773596593062406,476.07421875,-86.0205580945904,-80.0586125263613
0.976,0.549616322421593,0.774365246308775,476.5625,-99.2240816092348,-77.5360176215865
0.977,0.532688419535263,0.775123861396856,477.05078125,-89.243629170811,-75.5186266048609
0.978,0.542053272517833,0.775870338103116,477.5390625,-84.3255597950897,-76.7388564073983
0.979,0.560657057593373,0.776602619116781,478.02734375,-85.3548763033461,-79.6693043661334
0.98,0.54086917367732,0.777318695260975,478.515625,-94.9439068299083,-78.668962848614
0.981,0.558107354122896,0.778016610605509,479.00390625,-90.9883196537085,-78.4565685029079
0.982,0.565349938247377,0.778694467470453,479.4921875,-84.6294522476753,-77.7106274835682
0.983,0.566800608409123,0.779350431315187,479.98046875,-84.8469791668438,-79.1546575590584
0.984,0.570037552576377,0.779982735500706,480.46875,-92.1542891637391,-78.6610993792276
0.985,0.561729822186883,0.780589685904824,480.95703125,-93.3185091565236,-78.0096861372134
0.986,0.562852730440357,0.781169665362553,481.4453125,-85.0666206415558,-76.2396625233853
0.987,0.577617678518243,0.78172113789871,481.93359375,-84.4792235779241,-76.7912509101324
0.988,0.56637805855403,0.782242652717513,482.421875,-90.1341337182355,-77.5158751008208
0.989,0.565875670268907,0.782732847913773,482.91015625,-96.6611979719513,-78.5399069150905
0.99,0.54514424714488,0.783190453870618,483.3984375,-85.6511691545216,-76.1121196204494
0.991,0.566715113753506,0.783614296308794,483.88671875,-84.2400624095964,-75.5442736288891
0.992,0.54702688314539,0.784003298953507,484.375,-88.5927513673422,-76.5662794507383
0.993,0.547676355783643,0.784356485789199,484.86328125,-102.243516712436,-79.9425653268543
0.994,0.545023218112127,0.784672982882197,485.3515625,-86.4043785789194,-78.3810752337051
0.995,0.53306101788726,0.784952019765298,485.83984375,-84.122480481754,-74.5613479424363
0.996,0.538806434167597,0.785192930393836,486.328125,-87.3853250853716,-75.7151320240471
0.997,0.54606029288548,0.785395153695429,486.81640625,-112.372789429747,-76.039897713935
0.998,0.537593042129767,0.785558233741528,487.3046875,-87.3583345882212,-78.45830135199
0.999,0.53137155532882,0.785681819566666,487.79296875,-84.1231398154758,-78.3429132465834
1,0.56923790439707,0.785765664652564,488.28125,-86.4299363165966,-77.6526336544739
1.001,0.56093899432517,0.785809626083446,488.76953125,-102.452424361893,-76.0234006738123
1.002,0.579122992874927,0.785813663372039,489.2578125,-88.5626881042737,-76.9931079760351
1.003,0.582106138954013,0.785777836956701,489.74609375,-84.2419981289809,-76.7875830536289
1.004,0.586046702813507,0.785702306379316,490.234375,-85.6763335420697,-79.4188189613961
1.005,0.575677889143583,0.785587328167283,490.72265625,-96.7789449523755,-77.2996654438563
1.006,0.559115405893283,0.785433253455591,491.2109375,-90.0982423199499,-75.7086822385698
1.007,0.557795989173467,0.785240525393295,491.69921875,-84.4823040908849,-75.8423450066724
1.008,0.565675544221937,0.785009676382704,492.1875,-85.0920756763242,-75.6825521142547
1.009,0.55688696349726,0.784741325201227,492.67578125,-93.4037409316932,-75.1606754555531
1.01,0.539955219771587,0.784436174056907,493.1640625,-92.1074693346689,-73.9357770067428
1.011,0.563399576817713,0.784095005628843,493.65234375,-84.8509681664609,-73.6798142467065
1.012,0.545676650557823,0.783718680141442,494.140625,-84.6556542659955,-80.1192343026467
1.013,0.547960518852753,0.783308132515281,494.62890625,-91.0584243746864,-79.3930253259672
1.014,0.541065213987893,0.782864369627373,495.1171875,-94.8751609432084,-76.7964574826693
1.015,0.559633724460983,0.782388467701128,495.60546875,-85.3594027000409,-76.5991291885283
1.016,0.545650048140726,0.781881569833468,496.09375,-84.3528080563069,-78.7409576377209
1.017,0.531503844552987,0.781344883655836,496.58203125,-89.3058479378812,-76.3703466226302
1.018,0.54599825087822,0.780779679118758,497.0703125,-99.1026856405287,-76.9664941563986
1.019,0.525537327501583,0.780187286384794,497.55859375,-86.0250625347977,-77.2484716132168
1.02,0.544895469033603,0.779569093809081,498.046875,-84.1744581981193,-75.9692581700054
1.021,0.557958263498166,0.778926545977964,498.53515625,-87.9466882165263,-78.4222674141531
1.022,0.567187041415597,0.778261141766057,499.0234375,-107.233281614634,-80.0818559984115
1.023,0.559365971422763,0.777574432365577,499.51171875,-86.8741735033182,-78.4552979122682
1.024,0.551081278569293,0.776868019243375,500,-87.1258495878503,-78.981023491918
1.025,0.576938969107703,0.776143551990587,,,
1.026,0.58700542883345,0.775402726042408,,,
1.027,0.558259580069783,0.774647280256133,,,
1.028,0.56358402438033,0.773878994341617,,,
1.029,0.540305379791543,0.7730996861397,,,
1.03,0.55747702753391,0.772311208742362,,,
1.031,0.552208800684797,0.771515447444923,,,
1.032,0.53914158061056,0.770714316518101,,,
1.033,0.55268621404561,0.769909755790013,,,
1.034,0.535871953952933,0.769103727038205,,,
1.035,0.535601423193923,0.768298210209242,,,
1.036,0.547141664303,0.76749519950372,,,
1.037,0.55624544170511,0.766696699381067,,,
1.038,0.555968827963123,0.765904720545564,,,
1.039,0.55283691850416,0.765121275970086,,,
1.04,0.568481435403307,0.764348376998826,,,
1.041,0.553224698948433,0.763588029548826,,,
1.042,0.564987988632777,0.762842230407622,,,
1.043,0.570300197516047,0.762112963604447,,,
1.044,0.5785452753256,0.761402196816818,,,
1.045,0.58312194460748,0.760711877762941,,,
1.046,0.57395690497395,0.760043930523849,,,
1.047,0.583304344841117,0.759400251739222,,,
1.048,0.544741130508423,0.758782706628446,,,
1.049,0.5491579483604,0.75819312480249,,,
1.05,0.565405635905103,0.757633295849307,,,
1.051,0.54367331124927,0.757104964691984,,,
1.052,0.54757564428258,0.75660982673287,,,
1.053,0.54675841457386,0.756149522807962,,,
1.054,0.525294090220897,0.755725633983487,,,
1.055,0.53407877665145,0.755339676230007,,,
1.056,0.545990975732183,0.754993095008581,,,
1.057,0.522776905708397,0.754687259800152,,,
1.058,0.54551668174323,0.754423458605572,,,
1.059,0.547892528404073,0.754202892441887,,,
1.06,0.572994225752737,0.754026669862086,,,
1.061,0.572097331129746,0.75389580153143,,,
1.062,0.580025437616653,0.753811194903297,,,
1.063,0.55233760191658,0.753773649049632,,,
1.064,0.561405757094843,0.753783849712398,,,
1.065,0.55750936707329,0.753842364650011,,,
1.066,0.586753567039183,0.75394963935438,,,
1.067,0.575299147655497,0.754105993209903,,,
1.068,0.563841086140847,0.754311616157249,,,
1.069,0.553494834469827,0.754566565914344,,,
1.07,0.552779896447947,0.754870765796527,,,
1.071,0.56073997505374,0.7552240031676,,,
1.072,0.56012748257227,0.755625928542848,,,
1.073,0.546756841711966,0.756076055353702,,,
1.074,0.550299722728033,0.756573760372153,,,
1.075,0.53239853270251,0.757118284782827,,,
1.076,0.53354178936738,0.757708735882284,,,
1.077,0.52839492460815,0.758344089378829,,,
1.078,0.549697591672153,0.759023192261814,,,
1.079,0.570135602840106,0.759744766207493,,,
1.08,0.57027139548404,0.760507411489291,,,
1.081,0.561006500772257,0.761309611362934,,,
1.082,0.570267276861537,0.762149736900052,,,
1.083,0.57043065078107,0.763026052245909,,,
1.084,0.570876302416813,0.763936720276561,,,
1.085,0.557518668484383,0.764879808626995,,,
1.086,0.550877105056813,0.765853296055077,,,
1.087,0.578801761891363,0.766855079097878,,,
1.088,0.56270715275899,0.767882978969471,,,
1.089,0.549777908918693,0.768934748645352,,,
1.09,0.547417532975803,0.770008080079815,,,
1.091,0.55219043874035,0.771100611507829,,,
1.092,0.54645460433387,0.77220993478873,,,
1.093,0.55425791525773,0.773333602752117,,,
1.094,0.551676224956167,0.774469136505888,,,
1.095,0.54057355840925,0.775614032664813,,,
1.096,0.556845116427797,0.776765770458989,,,
1.097,0.56031665367043,0.777921818686478,,,
1.098,0.56714255426506,0.779079642481392,,,
1.099,0.542660098650533,0.780236709874759,,,
1.1,0.560175020749947,0.781390498128806,,,
1.101,0.562013216950807,0.782538499826394,,,
1.102,0.55587851212427,0.783678228697979,,,
1.103,0.56623988553261,0.784807225170644,,,
1.104,0.577733223472167,0.78592306162886,,,
1.105,0.568044104531117,0.78702334738394,,,
1.106,0.571937124579447,0.78810573335539,,,
1.107,0.57340703735816,0.789167916468551,,,
1.108,0.564152673943077,0.790207643768001,,,
1.109,0.551282159719847,0.791222716238898,,,
1.11,0.568652635829847,0.792210992324454,,,
1.111,0.555718016659436,0.793170391129693,,,
1.112,0.552581208403393,0.794098895306598,,,
1.113,0.55187760165333,0.794994553619128,,,
1.114,0.524034112934567,0.795855483186774,,,
1.115,0.555997349313967,0.796679871405074,,,
1.116,0.53307970304997,0.797465977544358,,,
1.117,0.54135275007157,0.798212134033983,,,
1.118,0.559783450697763,0.798916747444874,,,
1.119,0.555141241386347,0.799578299184378,,,
1.12,0.55985280028876,0.800195345914348,,,
1.121,0.569017730439967,0.800766519699054,,,
1.122,0.565918149809563,0.801290527887927,,,
1.123,0.55187117553394,0.801766152740817,,,
1.124,0.576077865982253,0.802192250809659,,,
1.125,0.581718446841227,0.802567752099194,,,
1.126,0.570495430975263,0.802891659040179,,,
1.127,0.567791281611597,0.803163045320388,,,
1.128,0.57844040852383,0.803381054629419,,,
1.129,0.54373622713718,0.803544899380389,,,
1.13,0.554353811612807,0.803653859474136,,,
1.131,0.548832407987557,0.803707281170819,,,
1.132,0.53362170979581,0.803704576131809,,,
1.133,0.540195652161373,0.803645220692759,,,
1.134,0.551401013735387,0.803528755426143,,,
1.135,0.53225333969535,0.803354785046895,,,
1.136,0.540959246308516,0.803122978707459,,,
1.137,0.52496361153374,0.802833070718978,,,
1.138,0.53578402087971,0.80248486172509,,,
1.139,0.55746717773643,0.802078220345338,,,
1.14,0.567990604597917,0.801613085296484,,,
1.141,0.570831767873533,0.801089467990539,,,
1.142,0.58350343148469,0.800507455596268,,,
1.143,0.555831799243813,0.799867214536226,,,
1.144,0.560240331906453,0.799168994374872,,,
1.145,0.570429973710383,0.798413132036786,,,
1.146,0.571547673901217,0.797600056278959,,,
1.147,0.57999089522458,0.796730292328552,,,
1.148,0.575802067637637,0.795804466587638,,,
1.149,0.557759895260473,0.794823311299607,,,
1.15,0.574673699357663,0.793787669067985,,,
1.151,0.561109046081643,0.792698497118081,,,
1.152,0.544123697230847,0.791556871196035,,,
1.153,0.527990294355773,0.790363989009287,,,
1.154,0.548577205168457,0.789121173126032,,,
1.155,0.547110186082403,0.787829873265481,,,
1.156,0.539187680665883,0.786491667922751,,,
1.157,0.54239200990598,0.78510826528052,,,
1.158,0.55409278244126,0.783681503365938,,,
1.159,0.569767205110656,0.782213349418788,,,
1.16,0.580322330166303,0.780705898448561,,,
1.161,0.557053908863663,0.779161370974228,,,
1.162,0.54475580877668,0.777582109958236,,,
1.163,0.543547800494887,0.775970576961444,,,
1.164,0.565086644915513,0.774329347554883,,,
1.165,0.561328633982963,0.772661106026733,,,
1.166,0.555794457766163,0.770968639420635,,,
1.167,0.589234867717967,0.76925483093787,,,
1.168,0.55754207549932,0.767522652734399,,,
1.169,0.562491962445777,0.765775158146198,,,
1.17,0.531597000488003,0.76401547338262,,,
1.171,0.56945560789944,0.762246788734946,,,
1.172,0.55212622843238,0.760472349352954,,,
1.173,0.543751545767377,0.758695445643884,,,
1.174,0.546165457286523,0.756919403345374,,,
1.175,0.559243693703473,0.755147573317813,,,
1.176,0.538450037889286,0.753383321094139,,,
1.177,0.53799788064495,0.75163001621845,,,
1.178,0.536981070891943,0.749891021401224,,,
1.179,0.541511375573646,0.748169681519884,,,
1.18,0.548658438887467,0.74646931249861,,,
1.181,0.556899610792057,0.744793190108252,,,
1.182,0.564684321279037,0.743144538732823,,,
1.183,0.55326587898851,0.741526520152761,,,
1.184,0.5661556887781,0.739942222398438,,,
1.185,0.575327553433503,0.73839464873213,,,
1.186,0.55230519960424,0.73688670682355,,,
1.187,0.566610478124333,0.735421198191871,,,
1.188,0.558223849711483,0.734000807994261,,,
1.189,0.555657248578567,0.732628095246124,,,
1.19,0.5632993375295,0.731305483560932,,,
1.191,0.5574425516483,0.730035252496664,,,
1.192,0.547666946479856,0.72881952958988,,,
1.193,0.5311850313032,0.72766028314649,,,
1.194,0.541157199623033,0.726559315841215,,,
1.195,0.550216371585253,0.725518259158063,,,
1.196,0.529252406659373,0.724538568685719,,,
1.197,0.565221009563487,0.723621520267839,,,
1.198,0.54865453072703,0.7227682070004,,,
1.199,0.559955389322903,0.721979537066018,,,
1.2,0.559550469514233,0.72125623239636,,,
1.201,0.553304400889087,0.720598828155906,,,
1.202,0.56161586533809,0.720007673041014,,,
1.203,0.55331793215555,0.719482930385596,,,
1.204,0.55759143918445,0.719024580057951,,,
1.205,0.57449349562223,0.718632421122814,,,
1.206,0.56301808056107,0.718306075230617,,,
1.207,0.562606580664416,0.718044990685615,,,
1.208,0.56505526658313,0.717848447138506,,,
1.209,0.551177173280907,0.717715560848234,,,
1.21,0.555139434753787,0.717645290460625,,,
1.211,0.53868948133238,0.717636443256209,,,
1.212,0.558205312338813,0.71768768182477,,,
1.213,0.539816016280843,0.717797531129453,,,
1.214,0.537142578561086,0.717964385929065,,,
1.215,0.541067267603957,0.718186518532414,,,
1.216,0.540146733220193,0.718462086861608,,,
1.217,0.55287078826073,0.718789142800652,,,
1.218,0.562957470725163,0.719165640801407,,,
1.219,0.542112848070983,0.719589446712904,,,
1.22,0.564521783916063,0.720058346794762,,,
1.221,0.560698135226127,0.720570056873359,,,
1.222,0.57756698531805,0.721122231601085,,,
1.223,0.565332972942013,0.721712473782995,,,
1.224,0.56528075499772,0.722338343739228,,,
1.225,0.58487386937431,0.722997368673252,,,
1.226,0.577144809483086,0.723687052014665,,,
1.227,0.567292271129807,0.724404882701296,,,
1.228,0.569160554753607,0.725148344359624,,,
1.229,0.561541915284197,0.725914924335629,,,
1.23,0.56167385967766,0.726702122520645,,,
1.231,0.56208586587397,0.727507459910566,,,
1.232,0.54818142239336,0.728328486833974,,,
1.233,0.531514965170707,0.729162790787284,,,
1.234,0.546641409983843,0.730008003822335,,,
1.235,0.555844742168737,0.730861809441868,,,
1.236,0.543698240604616,0.731721948968272,,,
1.237,0.53517037804571,0.732586227359216,,,
1.238,0.557613343964973,0.733452518449874,,,
1.239,0.559930821336576,0.734318769604619,,,
1.24,0.54360577463744,0.735183005760736,,,
1.241,0.55710261300332,0.736043332842775,,,
1.242,0.563204248819583,0.736897940520745,,,
1.243,0.584309591148283,0.73774510428166,,,
1.244,0.572866766401523,0.738583186785123,,,
1.245,0.568787419176217,0.739410638480718,,,
1.246,0.572404107894746,0.740225997477044,,,
1.247,0.556894103693733,0.741027888668241,,,
1.248,0.55594577283977,0.7418150221426,,,
1.249,0.560168643672803,0.742586190917814,,,
1.25,0.562302028065393,0.743340268066046,,,
1.251,0.549374471157133,0.744076203307272,,,
1.252,0.564867261981677,0.744793019160264,,,
1.253,0.531595627696337,0.745489806747913,,,
1.254,0.547312086234163,0.746165721358918,,,
1.255,0.532312914697893,0.746819977872794,,,
1.256,0.53975488886331,0.747451846159813,,,
1.257,0.552163944094947,0.748060646571031,,,
1.258,0.566998664787067,0.748645745634261,,,
1.259,0.54357401137753,0.749206552067667,,,
1.26,0.57250653264923,0.749742513211899,,,
1.261,0.55200570773848,0.750253111964421,,,
1.262,0.564430826059203,0.750737864277197,,,
1.263,0.553993875593623,0.751196317253734,,,
1.264,0.57295641286115,0.751628047856314,,,
1.265,0.580985983511793,0.752032662211524,,,
1.266,0.59032480340445,0.752409795483683,,,
1.267,0.552686946686553,0.752759112271889,,,
1.268,0.57680753660858,0.7530803074762,,,
1.269,0.561035753788933,0.753373107570863,,,
1.27,0.57166920473781,0.753637272217165,,,
1.271,0.553879020810326,0.753872596146571,,,
1.272,0.54032264023678,0.754078911247678,,,
1.273,0.537685658053193,0.75425608879825,,,
1.274,0.550246893703143,0.754404041793363,,,
1.275,0.549193885075226,0.754522727328216,,,
1.276,0.558326841533016,0.754612148996375,,,
1.277,0.550584768114286,0.754672359261561,,,
1.278,0.53505175232701,0.75470346175697,,,
1.279,0.549920202370943,0.754705613465099,,,
1.28,0.543453961757603,0.75467902673657,,,
1.281,0.562889495175053,0.754623971117686,,,
1.282,0.567434377996153,0.754540774969884,,,
1.283,0.56907010459062,0.754429826875224,,,
1.284,0.584157747291443,0.754291576827694,,,
1.285,0.573083934754443,0.754126537210713,,,
1.286,0.561908564890987,0.753935283559271,,,
1.287,0.563204799403807,0.753718455103679,,,
1.288,0.568271130844067,0.753476755092353,,,
1.289,0.552684652025667,0.753210950893,,,
1.29,0.541399787552703,0.75292187387371,,,
1.291,0.560152347286587,0.752610419066567,,,
1.292,0.547799223266583,0.752277544617106,,,
1.293,0.542188180558237,0.751924271024589,,,
1.294,0.546447095682883,0.751551680181965,,,
1.295,0.54768325948581,0.751160914229526,,,
1.296,0.54168203966782,0.750753174239407,,,
1.297,0.557920361302553,0.750329718746162,,,
1.298,0.565845881591016,0.749891862130796,,,
1.299,0.560474157767023,0.749440972853995,,,
1.3,0.540969266399767,0.748978471522212,,,
1.301,0.569310347256767,0.748505828760259,,,
1.302,0.55787113853078,0.748024562856918,,,
1.303,0.58394132828451,0.747536237146174,,,
1.304,0.57071901124445,0.747042457086773,,,
1.305,0.57305700164078,0.746544867007192,,,
1.306,0.57320179819221,0.746045146491942,,,
1.307,0.582686384801997,0.745545006397204,,,
1.308,0.55120623215083,0.745046184497321,,,
1.309,0.55845451335393,0.74455044077666,,,
1.31,0.54537529947945,0.744059552392778,,,
1.311,0.56068951897081,0.743575308346091,,,
1.312,0.559132555986686,0.743099503898542,,,
1.313,0.54962623469742,0.742633934788568,,,
1.314,0.5354102144406,0.742180391291204,,,
1.315,0.541505365156713,0.741740652169698,,,
1.316,0.540174803595177,0.741316478560617,,,
1.317,0.55237296772514,0.740909607831039,,,
1.318,0.557054032364707,0.740521747446452,,,
1.319,0.545519718401773,0.740154568890508,,,
1.32,0.558198862783707,0.739809701679696,,,
1.321,0.572865710866727,0.7394887275149,,,
1.322,0.56759872856362,0.739193174607925,,,
1.323,0.55992517333342,0.738924512216365,,,
1.324,0.578851028061673,0.738684145416482,,,
1.325,0.570497279236217,0.738473410141517,,,
1.326,0.557990142529047,0.738293568510899,,,
1.327,0.570096816683503,0.738145804472726,,,
1.328,0.554199176844833,0.738031219777115,,,
1.329,0.56651778545654,0.737950830292477,,,
1.33,0.5608047723346,0.737905562671771,,,
1.331,0.559379934941973,0.737896251372248,,,
1.332,0.548115601115763,0.737923636030133,,,
1.333,0.54928874346392,0.737988359190587,,,
1.334,0.534511028377013,0.738090964393076,,,
1.335,0.546380958971613,0.73823189461266,,,
1.336,0.53595348620711,0.738411491058915,,,
1.337,0.53733203945073,0.738629992335273,,,
1.338,0.551256573233697,0.738887533961494,,,
1.339,0.540204950607077,0.739184148259813,,,
1.34,0.551440914482583,0.739519764600357,,,
1.341,0.562088034995667,0.739894209993743,,,
1.342,0.572526565646027,0.740307210009238,,,
1.343,0.571346497070856,0.74075838998814,,,
1.344,0.568401643139023,0.741247276516724,,,
1.345,0.56552298441248,0.741773299123272,,,
1.346,0.558776907606573,0.742335792169858,,,
1.347,0.558642972988546,0.742933996921223,,,
1.348,0.56948804423076,0.743567063788392,,,
1.349,0.5484691791025,0.744234054761429,,,
1.35,0.55742280341743,0.744933946060825,,,
1.351,0.556796652696027,0.745665631047058,,,
1.352,0.55992591592638,0.746427923430171,,,
1.353,0.54559535282732,0.747219560814503,,,
1.354,0.539863253406173,0.748039208599352,,,
1.355,0.52933979743865,0.748885464237784,,,
1.356,0.5658230169299,0.749756861837638,,,
1.357,0.548811070312647,0.750651877074963,,,
1.358,0.553496708418217,0.751568932382228,,,
1.359,0.541205815584497,0.752506402370418,,,
1.36,0.55065250513146,0.753462619442349,,,
1.361,0.556084079186057,0.754435879551046,,,
1.362,0.579942971511233,0.755424448051243,,,
1.363,0.573839412268113,0.756426565585471,,,
1.364,0.575117350497783,0.757440453941925,,,
1.365,0.56781312826433,0.758464321821427,,,
1.366,0.566293161057683,0.759496370455234,,,
1.367,0.56607805219038,0.760534799022054,,,
1.368,0.56778781815635,0.761577809818132,,,
1.369,0.553758917334013,0.762623613135998,,,
1.37,0.57390005459268,0.763670431805644,,,
1.371,0.557091242611333,0.764716505349401,,,
1.372,0.5441108098827,0.765760093703733,,,
1.373,0.53320382618293,0.766799480471027,,,
1.374,0.54151123026776,0.767832975682998,,,
1.375,0.540925650534037,0.768858918081503,,,
1.376,0.543417028345456,0.76987567694676,,,
1.377,0.520984702770633,0.770881653521493,,,
1.378,0.542067224958967,0.771875282088339,,,
1.379,0.540974125205653,0.772855030756591,,,
1.38,0.55922802513258,0.773819402006269,,,
1.381,0.553099820620987,0.774766933028275,,,
1.382,0.5535724356167,0.775696195894077,,,
1.383,0.571165526009913,0.776605797589019,,,
1.384,0.59103121778649,0.777494379948992,,,
1.385,0.567136925368757,0.778360619547425,,,
1.386,0.579672722785383,0.779203227585654,,,
1.387,0.569632972243033,0.780020949842691,,,
1.388,0.573574030034557,0.78081256674018,,,
1.389,0.559855132640497,0.781576893575308,,,
1.39,0.556686538245,0.782312780969243,,,
1.391,0.533879862034313,0.783019115571885,,,
1.392,0.55458861428959,0.783694821055819,,,
1.393,0.55743875622214,0.784338859424123,,,
1.394,0.552521488642997,0.784950232648224,,,
1.395,0.530119334291563,0.785527984642736,,,
1.396,0.546610624419916,0.786071203572912,,,
1.397,0.568455458210597,0.786579024476701,,,
1.398,0.554973290732167,0.787050632168208,,,
1.399,0.541354921389193,0.787485264375112,,,
1.4,0.56418736837221,0.787882215052122,,,
1.401,0.568778965071953,0.788240837807822,,,
1.402,0.552056234950317,0.788560549383442,,,
1.403,0.574979933515853,0.78884083312858,,,
1.404,0.566089414318116,0.789081242428903,,,
1.405,0.580990222582627,0.789281404051866,,,
1.406,0.564805644546573,0.789441021386061,,,
1.407,0.575853174836663,0.789559877555598,,,
1.408,0.569278987242913,0.789637838392512,,,
1.409,0.561355504213783,0.789674855248827,,,
1.41,0.55226534189683,0.78967096762874,,,
1.411,0.565207323204163,0.789626305623335,,,
1.412,0.550174951832693,0.789541092136131,,,
1.413,0.541473243549323,0.789415644895515,,,
1.414,0.554791031141436,0.78925037825601,,,
1.415,0.534064307321613,0.789045804791842,,,
1.416,0.536902425341357,0.788802536682325,,,
1.417,0.555298441780083,0.788521286879824,,,
1.418,0.57653521737649,0.788202870038339,,,
1.419,0.537223851046303,0.78784820316529,,,
1.42,0.565337139948907,0.787458305943423,,,
1.421,0.553784701256127,0.787034300657688,,,
1.422,0.56114029132505,0.786577411655957,,,
1.423,0.56094895727364,0.786088964272199,,,
1.424,0.56346573367671,0.785570383143705,,,
1.425,0.580807917345223,0.785023189858024,,,
1.426,0.565184014568257,0.784448999870719,,,
1.427,0.575900687055283,0.783849518644597,,,
1.428,0.588702467746836,0.783226536976419,,,
1.429,0.572117293211717,0.78258192549786,,,
1.43,0.550532744540253,0.781917628360654,,,
1.431,0.545396617279497,0.781235656137557,,,
1.432,0.552431494529727,0.780538077987879,,,
1.433,0.54604301518211,0.779827013147859,,,
1.434,0.533761019273183,0.779104621813558,,,
1.435,0.53774041315379,0.778373095489945,,,
1.436,0.547887265940336,0.777634646887243,,,
1.437,0.538799440301313,0.776891499456112,,,
1.438,0.534589680965887,0.776145876666538,,,
1.439,0.566803981031113,0.775399991149378,,,
1.44,0.552080078815467,0.774656033831449,,,
1.441,0.572525024192526,0.773916163202309,,,
1.442,0.561747939821657,0.773182494852275,,,
1.443,0.570662397121527,0.772457091417566,,,
1.444,0.57173129119573,0.771741953061474,,,
1.445,0.547330317999447,0.771039008610639,,,
1.446,0.57848059899303,0.770350107452555,,,
1.447,0.56581373585428,0.769677012283047,,,
1.448,0.57662643175566,0.769021392770824,,,
1.449,0.546155709258673,0.768384820181297,,,
1.45,0.543843534271476,0.767768762976698,,,
1.451,0.53117379142477,0.767174583387749,,,
1.452,0.54560150533425,0.766603534936401,,,
1.453,0.562069890667977,0.766056760880195,,,
1.454,0.52592102889292,0.765535293544089,,,
1.455,0.531533379301527,0.765040054501035,,,
1.456,0.542684007226943,0.764571855555167,,,
1.457,0.53512461169501,0.764131400470669,,,
1.458,0.543648530391973,0.76371928737762,,,
1.459,0.54137656580393,0.763336011776116,,,
1.46,0.539668293385763,0.762981970052998,,,
1.461,0.561943526034663,0.762657463421524,,,
1.462,0.548093715210663,0.762362702192298,,,
1.463,0.572314501683753,0.762097810284307,,,
1.464,0.577244716737523,0.761862829889462,,,
1.465,0.56274199771561,0.761657726213573,,,
1.466,0.569825809968587,0.761482392230262,,,
1.467,0.56246328817064,0.761336653398538,,,
1.468,0.556342834910077,0.761220272306346,,,
1.469,0.552270516385333,0.761132953208962,,,
1.47,0.556002042530293,0.761074346432403,,,
1.471,0.55291738423496,0.7610440526089,,,
1.472,0.56027511825307,0.761041626706732,,,
1.473,0.574748974923243,0.761066581813557,,,
1.474,0.519104126127307,0.761118392633077,,,
1.475,0.546283721914567,0.7611964986592,,,
1.476,0.54793384479996,0.761300306996968,,,
1.477,0.54910393012576,0.761429194802993,,,
1.478,0.532427325316543,0.761582511319272,,,
1.479,0.562182243222306,0.761759579474587,,,
1.48,0.583095638341473,0.761959697029283,,,
1.481,0.561051528260637,0.762182137243218,,,
1.482,0.565076960588,0.762426149053441,,,
1.483,0.5586235893843,0.762690956757223,,,
1.484,0.564286058520307,0.762975759205851,,,
1.485,0.551532160569556,0.763279728523368,,,
1.486,0.57573081464163,0.763602008372332,,,
1.487,0.56171106449215,0.763941711797783,,,
1.488,0.561414447846787,0.76429791869409,,,
1.489,0.55536148980353,0.764669672957815,,,
1.49,0.537250867884307,0.765055979409984,,,
1.491,0.532117084045777,0.765455800588314,,,
1.492,0.559983052999773,0.765868053519754,,,
1.493,0.554160450901627,0.766291606585442,,,
1.494,0.539261508429563,0.766725276586129,,,
1.495,0.558883959545917,0.767167826109124,,,
1.496,0.54534860772483,0.767617961289509,,,
1.497,0.56523150431255,0.768074330048311,,,
1.498,0.534653124811237,0.768535520877386,,,
1.499,0.552463504510113,0.769000062225413,,,
1.5,0.543603865128306,0.769466422523786,,,
1.501,0.546784061531483,0.769933010878055,,,
1.502,0.570544127573167,0.770398178441422,,,
1.503,0.5620239848699,0.770860220480775,,,
1.504,0.564469688879017,0.771317379140449,,,
1.505,0.57027968811854,0.77176784690199,,,
1.506,0.58465637806158,0.772209770728637,,,
1.507,0.575850474144876,0.77264125687242,,,
1.508,0.560605347445163,0.773060376312096,,,
1.509,0.567358944717527,0.773465170784083,,,
1.51,0.55846743728312,0.773853659366644,,,
1.511,0.545890477628637,0.774223845578802,,,
1.512,0.518814326268083,0.774573724958902,,,
1.513,0.536865664657553,0.774901293092972,,,
1.514,0.543935757165473,0.775204554069558,,,
1.515,0.531917887429233,0.775481529343006,,,
1.516,0.557415503288343,0.7757302669876,,,
1.517,0.543926566252563,0.775948851318358,,,
1.518,0.55013018170732,0.77613541284181,,,
1.519,0.552846559656957,0.776288138485522,,,
1.52,0.56313301106988,0.776405282041804,,,
1.521,0.54799045456396,0.776485174750205,,,
1.522,0.568520952030596,0.776526235934335,,,
1.523,0.562208892718923,0.776526983600655,,,
1.524,0.557155107852483,0.776486044900176,,,
1.525,0.557161163365386,0.776402166349923,,,
1.526,0.578435366897283,0.776274223711241,,,
1.527,0.573340714373653,0.776101231428611,,,
1.528,0.56520542236,0.775882351546032,,,
1.529,0.561197891147413,0.775616902037482,,,
1.53,0.56224972235865,0.775304364509975,,,
1.531,0.548878486280067,0.774944391257605,,,
1.532,0.54626171985942,0.774536811658102,,,
1.533,0.53057117365032,0.774081637907983,,,
1.534,0.549437643961657,0.773579070089456,,,
1.535,0.56175005514269,0.773029500555481,,,
1.536,0.546617675448533,0.772433517613033,,,
1.537,0.563889723438553,0.771791908481285,,,
1.538,0.542910274484933,0.77110566150112,,,
1.539,0.54579820660565,0.770375967573283,,,
1.54,0.54765736779013,0.76960422080249,,,
1.541,0.553877026187723,0.768792018323227,,,
1.542,0.55618846737764,0.767941159280328,,,
1.543,0.575635191962207,0.76705364293493,,,
1.544,0.574101119542397,0.766131665864928,,,
1.545,0.568210972636943,0.765177618228782,,,
1.546,0.572001305946883,0.764194079062306,,,
1.547,0.582310220913503,0.763183810579786,,,
1.548,0.560503268152223,0.762149751453611,,,
1.549,0.56607967035647,0.761095009050868,,,
1.55,0.53762968218691,0.760022850610981,,,
1.551,0.563180576160573,0.758936693354558,,,
1.552,0.55535294224395,0.75784009351885,,,
1.553,0.552860401064297,0.756736734319632,,,
1.554,0.56796243161498,0.755630412844681,,,
1.555,0.54912228301286,0.754525025893166,,,
1.556,0.555235266826653,0.753424554788993,,,
1.557,0.543016597922316,0.752333049212083,,,
1.558,0.548409533659407,0.751254610106048,,,
1.559,0.553640099674307,0.750193371731369,,,
1.56,0.559862978893713,0.749153482940031,,,
1.561,0.584577753317863,0.748139087753813,,,
1.562,0.566515529804426,0.747154305337308,,,
1.563,0.561596005714307,0.746203209470533,,,
1.564,0.560781592356006,0.745289807643659,,,
1.565,0.575014031695517,0.744418019914432,,,
1.566,0.577272017493107,0.743591657682405,,,
1.567,0.562896233409263,0.742814402539824,,,
1.568,0.547419135877083,0.742089785356893,,,
1.569,0.553973172892493,0.741421165751351,,,
1.57,0.570602182775223,0.740811712081736,,,
1.571,0.552347553359437,0.740264382092652,,,
1.572,0.535516151934697,0.739781904331205,,,
1.573,0.548450965920303,0.739366760448252,,,
1.574,0.546432399722993,0.739021168496968,,,
1.575,0.539789598570953,0.738747067343428,,,
1.576,0.543324958844837,0.738546102307586,,,
1.577,0.551239056115253,0.738419612156212,,,
1.578,0.524910312684763,0.738368617570483,,,
1.579,0.55293212048562,0.738393811208185,,,
1.58,0.551856099965363,0.738495549471951,,,
1.581,0.55003212804583,0.738673846079226,,,
1.582,0.556386785344916,0.738928367507437,,,
1.583,0.571995271984163,0.739258430361419,,,
1.584,0.55789821504476,0.739663000682912,,,
1.585,0.574811810663507,0.740140695197221,,,
1.586,0.5663260921647,0.740689784472092,,,
1.587,0.57440878419806,0.741308197949442,,,
1.588,0.5718083970298,0.741993530801058,,,
1.589,0.54866032668676,0.742743052554288,,,
1.59,0.550127176431217,0.743553717432792,,,
1.591,0.554342657107067,0.744422176360347,,,
1.592,0.546077130274067,0.745344790580264,,,
1.593,0.53776062087282,0.746317646845398,,,
1.594,0.545405403440377,0.747336574130578,,,
1.595,0.54631432623705,0.748397161810146,,,
1.596,0.54001269908698,0.749494779230638,,,
1.597,0.5647900045509,0.750624596595625,,,
1.598,0.552762347395847,0.751781607067182,,,
1.599,0.561956883826853,0.752960649975622,,,
1.6,0.55177631505682,0.754156435014849,,,
1.601,0.57784012157634,0.755363567285583,,,
1.602,0.564680580373943,0.756576573034909,,,
1.603,0.56484633922004,0.757789925930978,,,
1.604,0.551656862595727,0.758998073708078,,,
1.605,0.57252914644747,0.760195465020129,,,
1.606,0.57417078639902,0.761376576347746,,,
1.607,0.5730108951901,0.762535938812382,,,
1.608,0.55357415560453,0.763668164757732,,,
1.609,0.554304765465573,0.764767973961753,,,
1.61,0.550929080424993,0.765830219342502,,,
1.611,0.55318752706856,0.766849912019686,,,
1.612,0.554398176876547,0.767822245595079,,,
1.613,0.544513218539463,0.768742619521899,,,
1.614,0.540024008040543,0.769606661446012,,,
1.615,0.541043546618877,0.770410248416867,,,
1.616,0.547085227931813,0.771149526877302,,,
1.617,0.55003246820729,0.771820931343879,,,
1.618,0.54507574057912,0.772421201682613,,,
1.619,0.55983019678648,0.772947398872993,,,
1.62,0.566984414960923,0.77339691914363,,,
1.621,0.553301133684993,0.773767506362564,,,
1.622,0.563784611036073,0.774057262577428,,,
1.623,0.557478379873963,0.774264656623201,,,
1.624,0.55750109200181,0.774388530742553,,,
1.625,0.576905745794593,0.774428105189385,,,
1.626,0.566173702524536,0.774382980807446,,,
1.627,0.5752895948742,0.774253139593428,,,
1.628,0.554335751960803,0.774038943270799,,,
1.629,0.54662389936508,0.773741129918219,,,
1.63,0.57526331008908,0.773360808713538,,,
1.631,0.562479652745627,0.772899452868151,,,
1.632,0.550909728887267,0.772358890834468,,,
1.633,0.54068035102156,0.771741295871096,,,
1.634,0.551555000925567,0.77104917404711,,,
1.635,0.53728268760465,0.77028535076067,,,
1.636,0.568675090249597,0.769452955840757,,,
1.637,0.54781420839001,0.768555407297273,,,
1.638,0.548274280277077,0.767596393787354,,,
1.639,0.556169045222223,0.76657985587572,,,
1.64,0.571741476241633,0.765509966182012,,,
1.641,0.56122714400354,0.76439110852414,,,
1.642,0.569280813430807,0.763227856179426,,,
1.643,0.564789961317127,0.762024949392619,,,
1.644,0.582700648245513,0.760787272262373,,,
1.645,0.584107590570633,0.759519829137932,,,
1.646,0.594837652643497,0.758227720657652,,,
1.647,0.56423272433977,0.756916119561232,,,
1.648,0.568093659540513,0.755590246406989,,,
1.649,0.557835970540437,0.754255345323504,,,
1.65,0.561812674104103,0.752916659922167,,,
1.651,0.56761210846006,0.751579409495964,,,
1.652,0.54030925287064,0.750248765631581,,,
1.653,0.54689146992778,0.748929829365138,,,
1.654,0.53589409174164,0.747627609013113,,,
1.655,0.552788644802737,0.746346998806089,,,
1.656,0.539795921440557,0.745092758442935,,,
1.657,0.544683049390793,0.743869493668511,,,
1.658,0.54525921269328,0.74268163796154,,,
1.659,0.557744910550627,0.741533435403378,,,
1.66,0.56054010118455,0.740428924785,,,
1.661,0.55995374581586,0.739371924999681,,,
1.662,0.5683009589886,0.738366021762199,,,
1.663,0.56274959511739,0.737414555690383,,,
1.664,0.565344962805757,0.736520611779024,,,
1.665,0.57948385510778,0.735687010287818,,,
1.666,0.570645264677576,0.734916299053658,,,
1.667,0.585871932393283,0.73421074722434,,,
1.668,0.555431304365277,0.733572340397987,,,
1.669,0.556892504972467,0.733002777143063,,,
1.67,0.567087658670847,0.732503466869474,,,
1.671,0.551103908672263,0.732075529022114,,,
