Time_s,GT_Amplitude,Measured_Amplitude,Frequency_Hz,GT_PSD_dBHz,Measured_PSD_dBHz
0,0.0120462618417534,0.721996526164469,0,-10.2895477833185,-104.456160886827
0.001,1.45259468234428,1.79233459622194,0.48828125,-11.4103700847465,-100.963561885915
0.002,2.63236151591985,2.65187199277183,0.9765625,-26.7830230559094,-100.460854784905
0.003,3.36426880101328,3.19383823550712,1.46484375,-51.9327192436699,-100.794998702395
0.004,3.58170902463179,3.38504329013992,1.953125,-71.2528185251968,-101.380752957997
0.005,3.342672026484,3.26451867848076,2.44140625,-54.8454867449923,-101.053636041733
0.006,2.79539022334178,2.92177522863775,2.9296875,-50.109133292081,-100.418912267204
0.007,2.1227882745504,2.4643411661932,3.41796875,-51.8972375650722,-100.556370290818
0.008,1.48725289432309,1.98655617578095,3.90625,-63.5009594825958,-101.184598441964
0.009,0.992835392749735,1.54907621155901,4.39453125,-57.7743985068172,-101.050270879431
0.01,0.672725067094328,1.17297597729279,4.8828125,-52.7267509518618,-100.330746272822
0.011,0.500098386909118,0.846743311035919,5.37109375,-53.9418111139882,-100.250265936479
0.012,0.413620207180787,0.541112781578558,5.859375,-62.7752802564099,-100.853787596315
0.013,0.346425445124625,0.225992688953731,6.34765625,-62.3988275579636,-100.929992926727
0.014,0.249001326359498,-0.115343497431361,6.8359375,-55.5518966149977,-100.184561901077
0.015,0.100534598230703,-0.478332842198002,7.32421875,-55.8347513686618,-99.8775594818753
0.016,-0.0918663986253562,-0.837466962554093,7.8125,-62.648398350573,-100.383820278899
0.017,-0.302745713838917,-1.15447305643481,8.30078125,-67.3991074309399,-100.636435194183
0.018,-0.501365622807716,-1.39085100838337,8.7890625,-58.0644413075559,-99.9352495089138
0.019,-0.663137957049952,-1.51949732862436,9.27734375,-57.4347520825031,-99.4269151698432
0.02,-0.776085372454649,-1.53124134505045,9.765625,-62.6859639528423,-99.7621958981562
0.021,-0.841433248293693,-1.43533205753508,10.25390625,-73.6129726224669,-99.970304017661
0.022,-0.869558933569535,-1.25565731795194,10.7421875,-60.4062945393401,-99.797335108634
0.023,-0.873747677492794,-1.02515090879376,11.23046875,-58.8248516147624,-98.7558825312588
0.024,-0.864393611998727,-0.78008151814988,11.71875,-62.830623316032,-98.4082052934973
0.025,-0.845630435887639,-0.554926999547086,12.20703125,-84.300290476624,-99.4300159830376
0.026,-0.815206695659075,-0.377812775697099,12.6953125,-62.7299218178865,-98.0283257900907
0.027,-0.767132328495807,-0.266379105968274,13.18359375,-59.9993217168136,-97.8117408848221
0.028,-0.695657594807021,-0.22463837301086,13.671875,-63.000819724199,-96.4934579705245
0.029,-0.598844195749003,-0.242162129885707,14.16015625,-78.9182668673166,-94.1689290103575
0.03,-0.480400618505363,-0.296726208227445,14.6484375,-64.839889344418,-92.0963804225749
0.031,-0.349303113891846,-0.360247903629411,15.13671875,-60.8009944808924,-89.1362687741141
0.032,-0.217590711641284,-0.4063110630456,15.625,-63.4092121685515,-86.3117280374515
0.033,-0.0972855239817544,-0.416645381621499,16.11328125,-69.8870537670934,-86.01754816486
0.034,0.00246706985240821,-0.384137718656244,16.6015625,-64.826775399668,-84.8994545502666
0.035,0.0771743491757893,-0.311494187633635,17.08984375,-62.2869571628279,-84.9624634422
0.036,0.127294137611031,-0.207020768453131,17.578125,-60.9294290214933,-80.5898199431668
0.037,0.157181771898319,-0.0807006910199425,18.06640625,-63.8617020523229,-77.0473774357044
0.038,0.173203884849184,0.0567613054071646,18.5546875,-61.8652354399292,-76.2698821672065
0.039,0.181701601072222,0.192084042878254,19.04296875,-57.8075024239782,-74.8145716568816
0.04,0.187432497475861,0.307933858584772,19.53125,-62.3643452370679,-72.1719983091802
0.041,0.192902521909689,0.385470522646736,20.01953125,-58.1587793443789,-68.4888831437366
0.042,0.19867153928126,0.411579316200676,20.5078125,-57.1776555926923,-68.0985660075491
0.043,0.204353953568842,0.387199781717355,20.99609375,-58.0688409794036,-70.2795837071978
0.044,0.209765355918981,0.331147991454637,21.484375,-57.1706977183086,-67.9622214611232
0.045,0.215632638644471,0.275838080149244,21.97265625,-58.3060236418779,-65.9278655380757
0.046,0.223536397687336,0.255829020753634,22.4609375,-55.8979749602666,-63.5883328228366
0.047,0.23515791933399,0.294037795935927,22.94921875,-51.8888920561275,-63.1039792357421
0.048,0.251224873147574,0.391772091837538,23.4375,-52.3975375685458,-62.4867460415589
0.049,0.270642006867195,0.527169902696639,23.92578125,-51.7151873603985,-59.825747411202
0.05,0.290187641835443,0.662866875046033,24.4140625,-51.029336215221,-58.8923598949654
0.051,0.304970458030563,0.759370457724993,24.90234375,-50.554613843779,-57.9669889242055
0.052,0.309622301108101,0.788078368326082,25.390625,-50.8459752464432,-57.4852310945147
0.053,0.299929106244263,0.738602539705906,25.87890625,-50.2535991577009,-58.3716751284061
0.054,0.274326450788645,0.6183597122372,26.3671875,-51.9916256886078,-59.6972172044522
0.055,0.234593478251742,0.446257755540617,26.85546875,-52.9219100307965,-58.7189521486197
0.056,0.18532836293942,0.244851134314792,27.34375,-51.9891257570926,-56.9111608191696
0.057,0.132320187761346,0.0353043208837363,27.83203125,-52.0158865919095,-57.0484345345076
0.058,0.0804659638068663,-0.16325038005633,28.3203125,-52.6779709599327,-58.9335548631106
0.059,0.0321206461083695,-0.332043478389822,28.80859375,-52.8826604920644,-60.564704913533
0.06,-0.0133936436407553,-0.452420524076024,29.296875,-53.5169585698589,-60.3255971295025
0.061,-0.0588521276496849,-0.509093911751346,29.78515625,-52.6449719299946,-60.0899313408111
0.062,-0.107074448423673,-0.495747716529039,30.2734375,-52.9762153041788,-58.8873720006937
0.063,-0.158576856841797,-0.419774136898224,30.76171875,-53.5916529481262,-60.2547223972027
0.064,-0.210002336506376,-0.303061224574912,31.25,-53.2142681015722,-62.0168927705032
0.065,-0.254199379980651,-0.177441274230024,31.73828125,-50.726267777062,-59.3266502896566
0.066,-0.282154852259499,-0.0757328705442214,32.2265625,-50.4291806980244,-57.3769031957981
0.067,-0.286137705344208,-0.0214901559648342,32.71484375,-51.1341808085576,-57.4354488604981
0.068,-0.262815759196201,-0.0215102230359244,33.203125,-52.3575975350776,-59.8898866501011
0.069,-0.215073470882811,-0.0640902766301348,33.69140625,-52.9121396137514,-61.5514737793146
0.07,-0.151775203843276,-0.123652399880561,34.1796875,-52.8517231840171,-60.4165948272117
0.071,-0.0855100519236505,-0.170102744839135,34.66796875,-48.9957545287584,-56.6660734747781
0.072,-0.0290768618809135,-0.179802662898445,35.15625,-45.951210930265,-53.6603745240691
0.073,0.00811350070334493,-0.144260660172671,35.64453125,-46.0433487488684,-53.4525705449907
0.074,0.0225171680177128,-0.0730370893066621,36.1328125,-45.588361033497,-52.325426146672
0.075,0.0169853752024533,0.0105285497747886,36.62109375,-46.1449032240208,-52.6584651974757
0.076,-0.0008141953985571,0.0789318389441814,37.109375,-49.6189869452304,-56.6561875547238
0.077,-0.021475429486861,0.111106127031046,37.59765625,-52.254854831036,-60.5144681071812
0.078,-0.0372765122161862,0.099343467228677,38.0859375,-51.5386194623979,-58.4212772077713
0.079,-0.0446852963282054,0.049855719391808,38.57421875,-49.9623680485784,-56.15624662704
0.08,-0.0450514299438813,-0.0225230481848857,39.0625,-47.0898708980706,-54.3056201660825
0.081,-0.0432889224103116,-0.102312151307979,39.55078125,-47.5609037215381,-55.1255479127558
0.082,-0.0451370383801923,-0.180012071311767,40.0390625,-50.0496133309061,-56.9128032686315
0.083,-0.0541605970094742,-0.254455018236226,40.52734375,-50.2184732974846,-57.1912298911561
0.084,-0.0697576654190318,-0.330051762526078,41.015625,-47.4710455908941,-54.8518325432405
0.085,-0.0869972803649524,-0.410269257171582,41.50390625,-47.0523132175134,-54.4508901678283
0.086,-0.0982957925799171,-0.49034381560217,41.9921875,-49.2050209741237,-56.3429581980311
0.087,-0.0961623223138641,-0.552989451685768,42.48046875,-50.8486649943451,-57.2223765142807
0.088,-0.0758892696007732,-0.570237134863363,42.96875,-51.3294949939736,-58.7851524951498
0.089,-0.037240813838372,-0.51220095510688,43.45703125,-51.176633550195,-58.5033379750488
0.09,0.0153061998867484,-0.360008505216674,43.9453125,-51.1445931620766,-57.5833309135248
0.091,0.0736941470702576,-0.117252077012321,44.43359375,-50.1894765253878,-56.8860249258395
0.092,0.128353243529554,0.185720459460588,44.921875,-49.1190962311429,-56.8911687049278
0.093,0.170583029909445,0.497236495392625,45.41015625,-48.4942809672301,-57.2437656421809
0.094,0.194573672511154,0.757722631286571,45.8984375,-49.033287590126,-57.5147255525134
0.095,0.198499632713486,0.916390854399773,46.38671875,-50.0743757250852,-57.4280806873183
0.096,0.184411739079041,0.945709813685273,46.875,-49.7133274562827,-56.1441413829469
0.097,0.157071946387115,0.849123378338872,47.36328125,-48.0258409769667,-55.1265537292822
0.098,0.122237147883413,0.6594228219442,47.8515625,-47.6250646154401,-55.1370015983048
0.099,0.0850319912252435,0.428028688403156,48.33984375,-49.2632230669855,-57.5307535818844
0.1,0.0489240436841978,0.208785054031521,48.828125,-54.5702383353523,-63.5411943537561
0.101,0.0155323246721777,0.0421975582239716,49.31640625,-59.7275048876309,-68.5995696955404
0.102,-0.0148068644352707,-0.0543203912978556,49.8046875,-62.6034007825746,-74.9070962497624
0.103,-0.042046340144293,-0.0876194465843097,50.29296875,-61.5920052354979,-71.5021777552603
0.104,-0.0654867007216803,-0.0823209460733534,50.78125,-55.0384346533999,-63.1586532271186
0.105,-0.083343587219718,-0.0696475455191816,51.26953125,-52.1189087621666,-60.7945565645875
0.106,-0.0930401473462902,-0.0753142258874329,51.7578125,-53.3677530572356,-60.3505688724433
0.107,-0.0920874591201498,-0.110397735930808,52.24609375,-55.5579575556224,-61.8888570324127
0.108,-0.0791618150516354,-0.16832867053028,52.734375,-53.5926069454498,-62.7806668733272
0.109,-0.0549601363515549,-0.228885714700244,53.22265625,-49.8447097503552,-57.3248617947408
0.11,-0.0225467488761474,-0.26724421131038,53.7109375,-46.4812066728985,-53.5513617475148
0.111,0.0129372225004223,-0.264377088852229,54.19921875,-44.7865264140121,-51.9921088039282
0.112,0.0451903238628062,-0.215114071755882,54.6875,-46.2270976585564,-53.4402752326239
0.113,0.0681254849509714,-0.131325376784937,55.17578125,-47.9313889032951,-55.5971102864359
0.114,0.0773642843380941,-0.039037416027927,55.6640625,-48.3559388721213,-56.2186121923117
0.115,0.0714031268889689,0.0303304470045105,56.15234375,-49.3227810089096,-56.9783161214071
0.116,0.0520449909590795,0.0523855943309959,56.640625,-48.0018809070743,-56.0544684300462
0.117,0.0238980018645263,0.0211776276912582,57.12890625,-47.3539323266159,-55.7177516588659
0.118,-0.00695566367288771,-0.0460670901375168,57.6171875,-47.9697805789143,-55.8950393321549
0.119,-0.0347286411382193,-0.114464264893627,58.10546875,-48.7366789991879,-55.7663108283924
0.12,-0.0555623993195513,-0.146080490427585,58.59375,-47.544829358774,-54.399130663503
0.121,-0.068446258376447,-0.117700631198393,59.08203125,-47.6770512042155,-55.7612329060069
0.122,-0.0750441639612149,-0.0337594659993635,59.5703125,-50.7332029425916,-60.4295108465997
0.123,-0.0784499538624351,0.0718831540978305,60.05859375,-52.5910261953968,-60.2833290234935
0.124,-0.0813661105912298,0.147122541982449,60.546875,-50.0303420245145,-56.8132045856788
0.125,-0.0845210776745689,0.142063192724859,61.03515625,-49.6266020088992,-56.0407169235514
0.126,-0.0860848109185679,0.0308229864331374,61.5234375,-51.3037579802605,-57.7483121299698
0.127,-0.0823924585606807,-0.174296762794928,62.01171875,-52.0706247082527,-58.1230333665416
0.128,-0.0696772329693681,-0.42247598863094,62.5,-53.2396513094976,-59.2183504725218
0.129,-0.046059546911746,-0.638702714118839,62.98828125,-53.0007115373036,-60.8273351945416
0.13,-0.0129265917364541,-0.748046967405276,63.4765625,-52.4519479756437,-59.5299503639858
0.131,0.0249222155816055,-0.701520452253162,63.96484375,-52.2437662883586,-58.5995095970298
0.132,0.0604952567314976,-0.494314315667382,64.453125,-50.4415508964693,-57.5279976973977
0.133,0.0867610604253238,-0.169305703869731,64.94140625,-49.0532174082022,-57.6979208917276
0.134,0.0988953796012296,0.196358188662132,65.4296875,-49.4629717887889,-58.5695369331788
0.135,0.0957348904878843,0.517105198698303,65.91796875,-52.5731775788123,-60.3974998203673
0.136,0.0798882642565702,0.727101526188499,66.40625,-53.9635147614494,-60.9692466465113
0.137,0.0565228579677014,0.799464382762304,66.89453125,-51.6773519539731,-58.8365304188621
0.138,0.031379952801418,0.749575477789596,67.3828125,-50.9336855775266,-58.0651217382512
0.139,0.00884785963630622,0.62280658712005,67.87109375,-51.5573819313738,-58.9652451716992
0.14,-0.00915960427400555,0.473226703435845,68.359375,-53.0574661486281,-59.4333368066012
0.141,-0.023152341564795,0.342617006611147,68.84765625,-52.9373218605456,-59.9485024644374
0.142,-0.0349738928568507,0.248007311575824,69.3359375,-53.0725144746244,-60.896585747399
0.143,-0.046224710553026,0.181778557477006,69.82421875,-51.290377613013,-59.3994666118919
0.144,-0.056940322779166,0.122654621409824,70.3125,-50.6437132748104,-58.1948890490561
0.145,-0.0651416780976962,0.0510745342093742,70.80078125,-50.7560441241663,-57.5965071114933
0.146,-0.0674683366316272,-0.0389365833099816,71.2890625,-50.3049538704182,-57.3384160587895
0.147,-0.0606023455237363,-0.136579951815545,71.77734375,-50.6146725069546,-57.6056777245475
0.148,-0.0428514230486966,-0.220221616469849,72.265625,-50.8920643457481,-57.2905316544248
0.149,-0.0152392860147697,-0.268843955518436,72.75390625,-55.1745787038325,-59.1388161036436
0.15,0.0182965446286443,-0.273390466172368,73.2421875,-52.9282051743251,-57.7236547157703
0.151,0.0516500769232052,-0.242556778855035,73.73046875,-51.7669577979716,-57.7167790862388
0.152,0.0780047326705595,-0.19985270516896,74.21875,-51.0987784845678,-58.4606898926154
0.153,0.0916127481012045,-0.172716099951798,74.70703125,-50.320569901294,-58.3002380787982
0.154,0.089428497356783,-0.178619292935711,75.1953125,-50.6491169959349,-59.2791190349054
0.155,0.0721161100887433,-0.215204342222276,75.68359375,-49.9456562816277,-58.6914731625411
0.156,0.0440508806881881,-0.25993116892763,76.171875,-49.9166955599765,-58.6734432615403
0.157,0.012187888861168,-0.280094372263198,76.66015625,-51.2084443830077,-59.9074550471108
0.158,-0.0159593594771705,-0.248892657922523,77.1484375,-50.8920645749247,-60.5850796375753
0.159,-0.0346256341263928,-0.160144168848589,77.63671875,-52.6373476098418,-61.3398976837778
0.16,-0.0415819859826139,-0.0345333027612232,78.125,-54.5495630342787,-59.5923183613656
0.161,-0.038692988132461,0.0861678788106072,78.61328125,-50.8921136587078,-56.4958400009556
0.162,-0.0309509205328501,0.155044013801646,79.1015625,-50.2477968641658,-56.4208802614811
0.163,-0.0243154782012631,0.139494547362526,79.58984375,-51.83342558999,-59.4166918251159
0.164,-0.0232249047940074,0.0358688344582326,80.078125,-52.9214482611716,-59.79366922769
0.165,-0.028804410248768,-0.126764560886468,80.56640625,-52.9421078723786,-59.9838406585611
0.166,-0.0384805964340372,-0.294918921755808,81.0546875,-53.8299771450404,-60.2329577690605
0.167,-0.0470886670699842,-0.40754904521253,81.54296875,-53.015108588309,-59.2616788677943
0.168,-0.0489591424978484,-0.415359178249466,82.03125,-52.3126849291866,-59.9294626866604
0.169,-0.0401571461142359,-0.296354028251576,82.51953125,-53.5539779122615,-60.8715736426922
0.17,-0.0200804942713796,-0.0631752974605077,83.0078125,-53.7692623220451,-60.5963219134827
0.171,0.00809906908422648,0.239549533326837,83.49609375,-55.0868047089072,-61.2862040155272
0.172,0.038270707857872,0.546882984748587,83.984375,-57.7603898827164,-62.6778869186849
0.173,0.0632004550203352,0.791042594937171,84.47265625,-55.543932248694,-61.8825170746997
0.174,0.0767152793274478,0.919697967462588,84.9609375,-55.1498037199451,-62.6531812168806
0.175,0.0755358787032627,0.909419981006154,85.44921875,-56.2057471502556,-64.1574804494863
0.176,0.0601856619587082,0.769784043174468,85.9375,-55.6891916653984,-64.1795662874297
0.177,0.0347342443084858,0.536869427432269,86.42578125,-55.1199719545324,-63.5265655781321
0.178,0.00551110048415812,0.25904398224292,86.9140625,-53.0121625053291,-60.8429916852931
0.179,-0.0207810842417079,-0.0188411697863707,87.40234375,-50.4301839587908,-58.5165819848658
0.18,-0.0389792549285499,-0.266162655068414,87.890625,-50.4044218921137,-58.6921819321665
0.181,-0.0468299450576681,-0.468321954563106,88.37890625,-51.8549540690753,-60.0724391077794
0.182,-0.0453887368996747,-0.620738845803327,88.8671875,-52.7968900173749,-61.1919023093332
0.183,-0.0383055572999242,-0.720156123889529,89.35546875,-53.4405910081685,-62.3343913612305
0.184,-0.0302434564691391,-0.759089963912039,89.84375,-53.5766920426873,-62.7681636042414
0.185,-0.0250279112700071,-0.72669909543191,90.33203125,-52.9506416114138,-63.2422558011633
0.186,-0.0242377469947381,-0.615433858355065,90.8203125,-54.409760863105,-63.8512737949762
0.187,-0.0267589031842026,-0.429688361614885,91.30859375,-54.9329749400899,-65.6180714520407
0.188,-0.0294351659397377,-0.191517789918254,91.796875,-53.9438321726867,-66.5986852269899
0.189,-0.0285348087996386,0.0603410542059084,92.28515625,-54.7644388241018,-65.6804511610209
0.19,-0.0214455119883398,0.278738712364997,92.7734375,-55.3539679629269,-64.8992385847492
0.191,-0.00791650187046798,0.420593469210087,93.26171875,-54.9319775579998,-64.7437931561676
0.192,0.0096534774338544,0.458622864628073,93.75,-57.0869591077484,-67.0914830698112
0.193,0.0269813087737591,0.388427525453113,94.23828125,-56.7642907479812,-68.9307185514537
0.194,0.0393747460256033,0.229737632910125,94.7265625,-53.9926341261443,-67.9431665632312
0.195,0.0433180274464744,0.0226227023539141,95.21484375,-53.2015889646271,-67.739893886128
0.196,0.0376064310189319,-0.180258363554194,95.703125,-53.0986772476897,-66.4630821477983
0.197,0.0237158531940555,-0.324739755179228,96.19140625,-53.6100477654487,-65.540523990684
0.198,0.00536409094295966,-0.368556371485676,96.6796875,-53.7678229865357,-64.8219911625058
0.199,-0.0125931617655525,-0.294376586924478,97.16796875,-55.3372516066885,-65.3155930438889
0.2,-0.0256521802420479,-0.117910268432448,97.65625,-57.0720492168607,-66.8729012306992
0.201,-0.0311080416012528,0.113480163969835,98.14453125,-58.2341251798465,-68.3047672203007
0.202,-0.0289232935771952,0.333316280889612,98.6328125,-58.4585775465214,-66.465119927585
0.203,-0.021589633416336,0.476519496035647,99.12109375,-58.3839745664411,-67.7824457647163
0.204,-0.0129549419499405,0.500786619776834,99.609375,-57.8895832515397,-67.013432227663
0.205,-0.00650292857869935,0.40102166327768,100.09765625,-55.2397206199784,-65.8200509742141
0.206,-0.00386330080747935,0.211753754761845,100.5859375,-52.1241089716336,-64.6378617820549
0.207,-0.00420732890446117,-0.00326078396140526,101.07421875,-51.1385634341234,-64.6600238103196
0.208,-0.0047529771069721,-0.171133872104186,101.5625,-52.2982743047538,-64.5956362083403
0.209,-0.00212365217932914,-0.233576010734913,102.05078125,-54.5603621492944,-66.5371294886845
0.21,0.00602231304148604,-0.16655372541535,102.5390625,-56.2526325437712,-67.7327887581171
0.211,0.0197651351140415,0.0111392673102492,103.02734375,-57.5811130978633,-69.3358966085893
0.212,0.0366199582939319,0.243682259890969,103.515625,-56.6322756903904,-70.9836029465889
0.213,0.0523153088655134,0.456199102906338,104.00390625,-53.4447657431232,-69.850300289188
0.214,0.0623545615345475,0.578289038215036,104.4921875,-52.4902224341099,-68.3437220825926
0.215,0.0636989079486365,0.565280844660346,104.98046875,-54.5552543406466,-69.0633960569985
0.216,0.0558385998835327,0.41112274118411,105.46875,-57.5147735007116,-71.7696637241676
0.217,0.0407955816989424,0.149775899504775,105.95703125,-57.5540449408249,-71.512991759096
0.218,0.022088692518537,-0.155124156493402,106.4453125,-53.6990112931338,-70.858445105927
0.219,0.00315309968908535,-0.429738679827091,106.93359375,-53.1036747694987,-70.4786903843066
0.22,-0.014060823260706,-0.613085327663229,107.421875,-54.3431842494024,-70.7045275791374
0.221,-0.0296575178934141,-0.676009910884903,107.91015625,-56.0541761223849,-73.3286941199276
0.222,-0.0452321954414937,-0.628872125606606,108.3984375,-57.4906822281287,-75.5251185962452
0.223,-0.0623869418454336,-0.514729356478263,108.88671875,-58.0953555451186,-77.7156348106341
0.224,-0.081042633509218,-0.390794649597809,109.375,-58.5034259455017,-77.8693616165729
0.225,-0.0984788653563181,-0.305825812011947,109.86328125,-58.946394296256,-76.5655104240651
0.226,-0.109748575660316,-0.282449572375319,110.3515625,-58.4150953263083,-76.9000360232617
0.227,-0.109409487751844,-0.310986042555986,110.83984375,-58.0219073108915,-78.6011255358121
0.228,-0.0938113078268741,-0.356547940551483,111.328125,-58.9916514509675,-80.6823566573026
0.229,-0.0629112545878006,-0.37588901660863,111.81640625,-58.0413332865646,-80.463839195009
0.23,-0.0208593562129888,-0.336468257531553,112.3046875,-56.571749035982,-78.8068566858585
0.231,0.0248507287877623,-0.229274105295436,112.79296875,-56.8386702220411,-76.9143434058467
0.232,0.0653538014055575,-0.0700117740701181,113.28125,-56.6803308949266,-77.1996624159113
0.233,0.09287908342858,0.110916960921336,113.76953125,-56.206042426336,-79.8891980524941
0.234,0.102954878111078,0.28364733730436,114.2578125,-58.0732572707842,-84.4340634850231
0.235,0.0956440122303464,0.43104025205376,114.74609375,-62.5642244751171,-82.8435277872323
0.236,0.0753644195766238,0.551807005683685,115.234375,-61.7112796334534,-80.1847368337192
0.237,0.0493159858732361,0.653923067505545,115.72265625,-59.3111844272252,-82.1954861165776
0.238,0.0250419982897964,0.743050097294562,116.2109375,-56.8410571847412,-82.289103146556
0.239,0.00797177054033791,0.813061031660169,116.69921875,-55.2283601896989,-79.6631373823676
0.24,-0.000207055542760765,0.844135209930391,117.1875,-55.0384423899637,-78.1543361798733
0.241,-0.0017874699222265,0.809617921372517,117.67578125,-57.7690372993082,-79.7475321222919
0.242,-0.00180377825452385,0.688382803263015,118.1640625,-59.4072968214927,-83.3245543385642
0.243,-0.00573847660942886,0.476792423091563,118.65234375,-59.1168088211634,-84.8477483215915
0.244,-0.0170111454999227,0.194443981057828,119.140625,-59.1281277710548,-83.8947691038064
0.245,-0.0352340312612599,-0.119379983969698,119.62890625,-58.3852258801148,-81.1956821683665
0.246,-0.0559839751061744,-0.41732299494723,120.1171875,-57.4830930385929,-80.7171695510843
0.247,-0.0722576494179277,-0.658431947354136,120.60546875,-57.8892547561493,-81.4276621501178
0.248,-0.0770913349732289,-0.81884756369535,121.09375,-58.7824471352161,-83.1926811357752
0.249,-0.066351966412553,-0.894197339952577,121.58203125,-60.2550730543679,-84.0515714684474
0.25,-0.0406253214408231,-0.893871749542175,122.0703125,-61.5479789218989,-85.6825625139715
0.251,-0.00543598485856236,-0.831735737252399,122.55859375,-60.7409010703587,-85.1213908035916
0.252,0.0303782479628359,-0.719063436105713,123.046875,-59.0598821854307,-84.3641270413166
0.253,0.0576123141450913,-0.563025369921386,123.53515625,-58.0557126790703,-84.8489352414576
0.254,0.0698597591496735,-0.370077596560726,124.0234375,-57.1890783045682,-85.8118480391584
0.255,0.0656378151694773,-0.150907917675688,124.51171875,-56.0159304863673,-85.0393383504974
0.256,0.0486188083953978,0.0766869382573193,125,-57.0778495403033,-85.9403107553867
0.257,0.0259294290007509,0.289008280065939,125.48828125,-59.2667535934017,-91.0806793031092
0.258,0.00528731386636748,0.461307454138561,125.9765625,-61.753455690117,-95.0182492559015
0.259,-0.00783695926821863,0.573841163415956,126.46484375,-61.5531059919107,-90.5339375851614
0.26,-0.0119488852766942,0.616346212546899,126.953125,-60.9065237989157,-88.5511480152589
0.261,-0.00957639956908215,0.589587461942965,127.44140625,-62.5667298648947,-89.529346473297
0.262,-0.00573232943792494,0.504572751373446,127.9296875,-61.0513177131462,-90.3020318305623
0.263,-0.00548283917587815,0.380804451001502,128.41796875,-57.7164768485863,-92.219266416739
0.264,-0.0116334180155923,0.243944423688564,128.90625,-60.5117375640502,-94.1951360610624
0.265,-0.0234753379006358,0.121752191025383,129.39453125,-64.0548830253036,-94.280676903073
0.266,-0.0370753221596461,0.037307578795326,129.8828125,-64.3152917028133,-93.2448966910962
0.267,-0.0469261160385915,0.00105995600263659,130.37109375,-64.5112008147526,-91.2317509619475
0.268,-0.04822122281302,0.00598912211900888,130.859375,-61.6995835727741,-90.7025240266017
0.269,-0.0388192595360692,0.0299764019186054,131.34765625,-62.9719559907884,-91.6210692574311
0.27,-0.0201555694875993,0.0456242452069627,131.8359375,-62.1156897810815,-92.7709598310175
0.271,0.00320006572624402,0.0328477001745623,132.32421875,-60.4491719814786,-92.562103644696
0.272,0.02513724101716,-0.0126529375015085,132.8125,-61.031917581081,-92.91126227606
0.273,0.0401352157160841,-0.0795838560491156,133.30078125,-63.4645228273103,-94.3965728644425
0.274,0.0451099204487318,-0.149104665095137,133.7890625,-63.9181740346467,-96.9011469252175
0.275,0.040252188409099,-0.205399807046387,134.27734375,-60.0747314775311,-95.003284251131
0.276,0.028543982379514,-0.242761017786071,134.765625,-57.8822919032317,-96.2900045704922
0.277,0.0142316599291311,-0.266097662183288,135.25390625,-59.5144747833805,-96.620266857083
0.278,0.00101297835248033,-0.28564027789201,135.7421875,-61.0996368983578,-97.9190586262917
0.279,-0.009222304262907,-0.309042774959959,136.23046875,-62.2960625673747,-97.0533727000293
0.28,-0.0166137115263993,-0.334752887924291,136.71875,-61.6498159311598,-95.8455905389347
0.281,-0.0225846284791979,-0.350018495648797,137.20703125,-59.8437267736272,-94.7005514449637
0.282,-0.0286259438449688,-0.335260554368299,137.6953125,-59.6914318037442,-93.5518878269278
0.283,-0.0352138350345356,-0.273552236033172,138.18359375,-60.7847872025507,-95.4597773320365
0.284,-0.0413075766012875,-0.160733511471148,138.671875,-64.0517132984306,-98.7942147978386
0.285,-0.0446010260531224,-0.0106131306484215,139.16015625,-63.1930119735878,-99.5053954636755
0.286,-0.0424236763909349,0.147983119574868,139.6484375,-61.7823538356171,-98.0337628733831
0.287,-0.0329460772658097,0.281128999821627,140.13671875,-60.3518498878319,-97.3392193985596
0.288,-0.0162020787993109,0.361730908946083,140.625,-61.2347140746164,-100.618817819892
0.289,0.00551344069494561,0.377839400189446,141.11328125,-65.2831651050893,-100.717379872393
0.29,0.0280681223219361,0.334432055459617,141.6015625,-65.4873682283389,-98.9401956276007
0.291,0.0466141896194989,0.249705867223464,142.08984375,-62.9823335421678,-98.2436304153695
0.292,0.0570416458202898,0.149017804308371,142.578125,-62.6808320205401,-99.7692032848338
0.293,0.0572852200401477,0.0588691263048375,143.06640625,-63.7054521567776,-101.160960631101
0.294,0.0480314354600182,0.00157983596894879,143.5546875,-64.0444279160289,-100.177156611143
0.295,0.0325387334896136,-0.00936408415078865,144.04296875,-65.2505424649677,-101.79011370949
0.296,0.0155795523987649,0.0271234399721811,144.53125,-67.2318830417785,-101.938367558158
0.297,0.00184217592776094,0.0981275959616418,145.01953125,-66.9071085695261,-100.180942585662
0.298,-0.00565462346461371,0.178104584936837,145.5078125,-64.7374391013318,-103.107597720614
0.299,-0.00657764891415938,0.23396333740205,145.99609375,-64.3126047250754,-103.693435374959
0.3,-0.00336419993986101,0.233577448762852,146.484375,-64.8355926269386,-105.529068470561
0.301,-0.000310638954095788,0.155896620981678,146.97265625,-64.771011139348,-105.18809789142
0.302,-0.00190649102344692,-0.00032010058434597,147.4609375,-62.6879043218296,-105.711621142632
0.303,-0.0109280875661549,-0.212291808326498,147.94921875,-63.3245691412228,-104.197243840698
0.304,-0.0269878854251248,-0.435915232126329,148.4375,-63.5694528625928,-103.044806336129
0.305,-0.0462053658734336,-0.616029271115014,148.92578125,-64.4439966544901,-103.535423526063
0.306,-0.0623085166415798,-0.702037633471354,149.4140625,-63.3425362580276,-105.449786469111
0.307,-0.0688623160880302,-0.66370223714405,149.90234375,-62.9908922977625,-104.42515650758
0.308,-0.0617660033798357,-0.501010082431302,150.390625,-62.839370399159,-107.038785681094
0.309,-0.041007572032053,-0.24443161919342,150.87890625,-61.4918633878089,-104.708511655799
0.31,-0.0109879941210245,0.0538324507318472,151.3671875,-61.6406287599729,-106.520385807994
0.311,0.0206991894728872,0.333822840923022,151.85546875,-62.8312637952607,-105.767449370006
0.312,0.0456130041608902,0.542573087589738,152.34375,-63.6819312005427,-106.360381915577
0.313,0.0571671536306659,0.646123137922716,152.83203125,-63.7374394819631,-107.21663692835
0.314,0.0527984055952559,0.636303924061473,153.3203125,-64.3627964611905,-109.305452083967
0.315,0.0348457769212689,0.530797736122905,153.80859375,-64.3924049308126,-107.952024933484
0.316,0.00979235496405136,0.366517619544768,154.296875,-64.1188392626972,-109.37261660854
0.317,-0.0139017605344717,0.188308625796735,154.78515625,-64.7125382085666,-107.360956106122
0.318,-0.0286297588321172,0.0364447454520293,155.2734375,-65.0575085121504,-109.223865557328
0.319,-0.0301499233695289,-0.0634146145139895,155.76171875,-64.0850724812198,-109.851016588271
0.32,-0.0189198314040378,-0.105227407207318,156.25,-63.2259139252943,-111.1847617004
0.321,0.00019839953110971,-0.101602740101275,156.73828125,-63.7894971369611,-111.126585537327
0.322,0.01976256278797,-0.0774970655861483,157.2265625,-67.4678097246793,-113.433901632677
0.323,0.03246736782553,-0.0605494259636129,157.71484375,-68.5135022617621,-112.099444036789
0.324,0.0337636921415478,-0.0710919982817843,158.203125,-67.5762389899673,-110.253855911095
0.325,0.02339037846626,-0.115017686286205,158.69140625,-66.0935735007685,-110.943323312058
0.326,0.00524449939868419,-0.181524466244601,159.1796875,-66.458991443396,-111.252402518655
0.327,-0.0143043164731065,-0.246128896530088,159.66796875,-65.3599095355109,-110.980423228306
0.328,-0.0289220404921113,-0.278268009602678,160.15625,-63.1053418924918,-111.228171495618
0.329,-0.0346182189270953,-0.252005802955079,160.64453125,-62.8050615386869,-110.046353523281
0.33,-0.0309782616150154,-0.157119760539312,161.1328125,-64.6825633641336,-111.381701530014
0.331,-0.0209266985803519,-0.00658582764786228,161.62109375,-68.0454888941084,-112.326325801272
0.332,-0.00922752433811633,0.163503774063344,162.109375,-67.6660265450359,-112.311669913724
0.333,-0.000404444026157902,0.303279456106673,162.59765625,-67.8021755506155,-114.062404883676
0.334,0.00305928313969567,0.365232567681612,163.0859375,-67.7537386763582,-110.476864190752
0.335,0.00155552185751424,0.320975525655514,163.57421875,-67.4010012132668,-114.633017781875
0.336,-0.00203719438395129,0.171817683055442,164.0625,-66.6720350313003,-112.315909331946
0.337,-0.00374327796497552,-0.0507707710911665,164.55078125,-65.9007448932726,-110.377672635686
0.338,-0.000325057303134037,-0.294378637881881,165.0390625,-64.4630068170805,-111.164144842555
0.339,0.00910394007312834,-0.500649746481245,165.52734375,-63.276252405537,-112.122242583229
0.34,0.0222825893988509,-0.620807577536265,166.015625,-63.9638620830966,-116.125296661152
0.341,0.0342081428252779,-0.627276859746562,166.50390625,-64.750835294996,-113.267833195244
0.342,0.0387743191026914,-0.518968814320615,166.9921875,-64.9109749992704,-114.078409814065
0.343,0.0311871914324685,-0.319838970230748,167.48046875,-66.6923652068754,-114.126289411928
0.344,0.0102568288823277,-0.071921777463779,167.96875,-65.4011511658146,-115.709198549066
0.345,-0.0204591133890194,0.174913622980101,168.45703125,-63.0467991884298,-111.792787833472
0.346,-0.0532939398883886,0.374001530809047,168.9453125,-62.6130000087518,-113.114263375512
0.347,-0.0787681062339131,0.491720640864407,169.43359375,-64.0135757319467,-115.089742400472
0.348,-0.0887006162130522,0.514587329969084,169.921875,-63.136995394979,-115.699699854734
0.349,-0.0789828765941197,0.451956430375,170.41015625,-63.595762828265,-115.686195014039
0.35,-0.0510415591858343,0.332892044015578,170.8984375,-64.5665093281851,-113.729742133669
0.351,-0.0115130543831704,0.197304127021319,171.38671875,-66.9054164416019,-116.619662283662
0.352,0.0297577828069281,0.083788703805449,171.875,-67.3322583287828,-115.920790560153
0.353,0.0627439114397713,0.0181127348407194,172.36328125,-66.0558543229709,-115.278193864804
0.354,0.0802700235601097,0.00599942912983265,172.8515625,-63.8176358343406,-113.981419792004
0.355,0.0799934998572108,0.0323126339092654,173.33984375,-64.7683942844039,-116.349688836322
0.356,0.0646501440741608,0.0669492121431868,173.828125,-66.1246434345809,-117.727982878103
0.357,0.0405747015480595,0.0760605605490332,174.31640625,-64.2318152076786,-114.182506701292
0.358,0.0151896879766446,0.0354216891095013,174.8046875,-62.5675871174352,-115.628086793163
0.359,-0.00550836347693325,-0.0587288187207001,175.29296875,-63.1756328936758,-116.619254110172
0.36,-0.0185688448416898,-0.186036218681232,175.78125,-66.2486193057598,-115.085064509551
0.361,-0.0243717075830966,-0.307971890800476,176.26953125,-65.4992050325849,-117.521120183933
0.362,-0.0256631193841362,-0.381876946044858,176.7578125,-64.8984636401165,-114.277131188305
0.363,-0.0258513715318532,-0.377682638638497,177.24609375,-63.7540951073147,-115.780039708411
0.364,-0.027299484742147,-0.290039295680552,177.734375,-63.8609867920344,-118.556112746009
0.365,-0.0303129437527594,-0.140391197182094,178.22265625,-63.6289241519897,-117.008372394561
0.366,-0.0331959768166425,0.031568785693103,178.7109375,-62.7647162680364,-115.642126604985
0.367,-0.0332575405837778,0.182583643994401,179.19921875,-63.54258622025,-116.551567326296
0.368,-0.0282355122040359,0.280092988809844,179.6875,-66.3891809482042,-117.113929464837
0.369,-0.0174848324154247,0.310982048323895,180.17578125,-66.4604525136469,-116.704410323729
0.37,-0.00246029549985096,0.282797050646893,180.6640625,-63.5001621500569,-115.303230468864
0.371,0.0136422549873891,0.218085441907714,181.15234375,-61.0288206408112,-116.251592608852
0.372,0.026916197419292,0.144366858818549,181.640625,-60.2320706426283,-116.685617786141
0.373,0.0340684376750875,0.0834124990529058,182.12890625,-60.6915650333841,-118.876953577208
0.374,0.0335619137382867,0.0437539632347528,182.6171875,-61.5489316013259,-115.43110900334
0.375,0.0261422487852285,0.0193336459363861,183.10546875,-60.8392316247943,-116.463752082309
0.376,0.0145255062439584,-0.0049668110810505,183.59375,-61.1992462545023,-118.436444326577
0.377,0.0023455052517326,-0.0430655599448476,184.08203125,-64.7988450175082,-117.053287985279
0.378,-0.00724827597537544,-0.0974372019561428,184.5703125,-71.7343066068037,-117.17994478998
0.379,-0.0128049959801868,-0.154383203743544,185.05859375,-65.8538896965189,-116.495328258487
0.38,-0.0151002047445502,-0.188095642023307,185.546875,-63.0782033344791,-117.261049354705
0.381,-0.0166919507185988,-0.172378348196962,186.03515625,-63.2081224295892,-117.041536420408
0.382,-0.0205770368246205,-0.0946887121093823,186.5234375,-62.7790408736908,-117.372368900128
0.383,-0.0284359932907504,0.0344042325919329,187.01171875,-61.9965682432794,-116.592367060641
0.384,-0.039263967234898,0.181265183945206,187.5,-62.8025893572206,-118.045393944227
0.385,-0.0491676530932122,0.29925388463333,187.98828125,-64.9988916456809,-117.857447054446
0.386,-0.0526465178750476,0.344877914861091,188.4765625,-67.5762536030887,-118.448297523665
0.387,-0.0449290057281691,0.293646713125349,188.96484375,-68.5016720155259,-117.258192119898
0.388,-0.024325067269958,0.149471290585635,189.453125,-66.2143110544501,-117.229175313451
0.389,0.00651814770631081,-0.0558896741660491,189.94140625,-66.0523660137478,-117.806372206289
0.39,0.0410597093503391,-0.272837955606932,190.4296875,-65.0323198263426,-118.14964859399
0.391,0.0708373576399335,-0.449288691534115,190.91796875,-63.4984152136528,-117.043618180896
0.392,0.0881883172878637,-0.545636659662483,191.40625,-62.2579841602168,-118.383848512754
0.393,0.0887178203259041,-0.544542353447007,191.89453125,-62.4522398397752,-119.525461688803
0.394,0.0726687330517017,-0.453479447203485,192.3828125,-62.841573522181,-117.632117778141
0.395,0.0447551586115586,-0.30082583203354,192.87109375,-64.2158032379709,-118.373885770155
0.396,0.012558417823463,-0.127716843023335,193.359375,-64.951958476759,-117.777413875664
0.397,-0.0159206550516419,0.0222799052982329,193.84765625,-65.209776973747,-119.125016927536
0.398,-0.0346926774208093,0.114176046242541,194.3359375,-66.8619371984678,-118.228838106566
0.399,-0.041397611172947,0.131436669765579,194.82421875,-64.2836383815814,-118.082248377283
0.4,-0.0376475516358964,0.0817793655914149,195.3125,-63.3857218389366,-117.751423099985
0.401,-0.0280711993673994,-0.00429692334356003,195.80078125,-63.9255387422974,-119.229164304503
0.402,-0.018430801314851,-0.0834277975604033,196.2890625,-66.0153953701555,-119.063938600803
0.403,-0.0134580780872054,-0.115097635479078,196.77734375,-64.7323470714527,-117.85525667514
0.404,-0.015167485045232,-0.0771429118965317,197.265625,-64.697325981077,-118.110380034908
0.405,-0.0222770617037254,0.0255182500346742,197.75390625,-66.2140504615117,-118.811991419968
0.406,-0.0309577839914996,0.162641254430263,198.2421875,-67.5204136678723,-119.674015583286
0.407,-0.0365747940338473,0.289954536812634,198.73046875,-64.8330348916576,-118.57698320792
0.408,-0.0356703612895097,0.36518682014587,199.21875,-62.4646135002638,-117.69588505384
0.409,-0.0273898481706773,0.362724274040062,199.70703125,-60.8398523297415,-118.795870257583
0.41,-0.0138399503922485,0.282116086674244,200.1953125,-60.9647768558723,-119.352543285855
0.411,0.000703456180680078,0.148136806479529,200.68359375,-64.1756296145877,-118.839589443441
0.412,0.0114274849124059,0.00255614127133406,201.171875,-66.6694708765796,-118.031869788783
0.413,0.0148693349921004,-0.109962655944806,201.66015625,-66.806060561853,-118.991375787294
0.414,0.0103607285384202,-0.15723861099344,202.1484375,-66.7299223392862,-119.936118369869
0.415,0.000434566644990627,-0.130367791833352,202.63671875,-66.0983880280392,-118.478412191326
0.416,-0.0100534961745476,-0.0451716669675927,203.125,-67.4547692422229,-118.046079807676
0.417,-0.0158189679729682,0.066533351474384,203.61328125,-68.6421117842206,-119.403696113852
0.418,-0.0133184886873257,0.171588360909505,204.1015625,-69.972814928223,-120.252162135065
0.419,-0.00228812080277868,0.248691745624884,204.58984375,-68.3112212750749,-118.746209523346
0.42,0.0140116676447946,0.293793131711885,205.078125,-68.6432227810143,-118.921225846989
0.421,0.0299653654331524,0.315911444170868,205.56640625,-69.1869621707074,-118.592271969273
0.422,0.0397355419282125,0.326864330705467,206.0546875,-67.3693851612908,-119.9580286723
0.423,0.0395407476804574,0.331256141109312,206.54296875,-69.6926304175436,-119.041830532949
0.424,0.0292025994612541,0.322193534031614,207.03125,-70.2246944660576,-118.745107648702
0.425,0.0123419206650971,0.284518383240587,207.51953125,-69.3894772874963,-119.056811345906
0.426,-0.00489891237957259,0.203318743055433,208.0078125,-67.7627227541676,-120.12655524457
0.427,-0.0161478792682439,0.0732766577949846,208.49609375,-65.4197938341601,-119.689853478853
0.428,-0.0172278973844059,-0.0954780792367539,208.984375,-64.6188773621387,-118.859227492074
0.429,-0.00778271393150946,-0.277577314581533,209.47265625,-64.4348132522039,-118.633679029827
0.43,0.00849453183930997,-0.438594458520864,209.9609375,-67.9783134417668,-119.829236932105
0.431,0.0251031974998652,-0.54463843323069,210.44921875,-71.163467630281,-120.182827751575
0.432,0.0350176567910238,-0.571923374030831,210.9375,-68.8144210117735,-119.012212370397
0.433,0.0332289054470507,-0.513803967516096,211.42578125,-67.7498415012383,-118.8991865333
0.434,0.018643175664544,-0.384123603327362,211.9140625,-69.8302250597743,-119.760788849853
0.435,-0.00538656953389724,-0.216237880632137,212.40234375,-68.5280576654422,-120.259409524158
0.436,-0.0321482935379353,-0.0570797983715972,212.890625,-64.3393986086362,-119.663244358731
0.437,-0.0539079133722997,0.0436719559364933,213.37890625,-63.747661874043,-118.93325945554
0.438,-0.0646151380810096,0.0474880476334074,213.8671875,-65.9137048169896,-119.710642427609
0.439,-0.0619473661996736,-0.0598572963240812,214.35546875,-66.4495026017465,-120.40898636137
0.44,-0.0479496266220579,-0.260523337051471,214.84375,-67.1315834990254,-119.549127277973
0.441,-0.0281009502849658,-0.50571816298004,215.33203125,-68.8911643449861,-119.186434154816
0.442,-0.00922070506882058,-0.72624523455637,215.8203125,-70.1868881156002,-119.855576000223
0.443,0.00298661350092626,-0.849830637614691,216.30859375,-68.7935116401735,-120.257920000763
0.444,0.00585227356407218,-0.82065026312178,216.796875,-68.1873370517848,-120.131281369851
0.445,0.000449731490570546,-0.616009214501644,217.28515625,-69.1332791423601,-119.178402180916
0.446,-0.00911108429477811,-0.25547899683093,217.7734375,-69.5382998392499,-119.493713041814
0.447,-0.0174360187934606,0.200975695211848,218.26171875,-68.4562963548437,-120.808655956129
0.448,-0.0199028194411897,0.666574746052081,218.75,-69.5054197104099,-120.04580599409
0.449,-0.014247233572324,1.04968132146964,219.23828125,-68.0463687809903,-119.441058752394
0.45,-0.00117434152878001,1.27742753677275,219.7265625,-66.9761117355299,-119.613661082218
0.451,0.0161089975097307,1.31354968944548,220.21484375,-70.2284761127655,-120.52468084262
0.452,0.0331776368940855,1.16532973066384,220.703125,-71.1540946379194,-120.476688773347
0.453,0.0459878523518197,0.878591745228609,221.19140625,-71.7441030562711,-119.623567298678
0.454,0.052222286178835,0.523378293045405,221.6796875,-71.4356228042264,-119.630413192117
0.455,0.0519125359130708,0.174994530364161,222.16796875,-71.3958111399086,-120.446752773148
0.456,0.0471343538906701,-0.104367609223671,222.65625,-70.3421340086526,-120.858039189895
0.457,0.0409146108162709,-0.278726701937186,223.14453125,-72.0708609644833,-119.667606841096
0.458,0.0357810488552413,-0.342930949462863,223.6328125,-67.7102573918999,-119.713478857281
0.459,0.032515138012845,-0.318183424160358,224.12109375,-67.904929255438,-120.613251371712
0.46,0.0296109661038383,-0.2409540059693,224.609375,-68.6438721915936,-120.926843489687
0.461,0.023731158616206,-0.150000497780928,225.09765625,-66.3484903125244,-119.778433641137
0.462,0.0111155058002604,-0.0763213547397246,225.5859375,-65.77895855233,-119.747857928778
0.463,-0.0105075150806897,-0.0386870313224817,226.07421875,-67.1192952828713,-120.471545891201
0.464,-0.0402820583553919,-0.0442422419045007,226.5625,-67.9454534733126,-121.026477770001
0.465,-0.0736609003033104,-0.0914635960838765,227.05078125,-69.2851472435276,-120.272842325484
0.466,-0.103332130757482,-0.172698165823765,227.5390625,-67.3793267446975,-119.682699346256
0.467,-0.121405795425738,-0.275176082143593,228.02734375,-67.3184130964337,-120.571840009004
0.468,-0.122060238640757,-0.381246155054787,228.515625,-68.7220811550059,-121.06911575814
0.469,-0.103636900212539,-0.469424068363917,229.00390625,-67.9112769230098,-120.297996740936
0.47,-0.0693878490387014,-0.517448591360523,229.4921875,-66.4292148635874,-119.930187328312
0.471,-0.0266003187571639,-0.507242914956577,229.98046875,-67.4134719723491,-120.481642343076
0.472,0.0155762917609562,-0.430175205780831,230.46875,-69.595638905872,-121.189673555832
0.473,0.0488246450586299,-0.290335844136526,230.95703125,-70.799931488733,-120.686546740939
0.474,0.0679477814088683,-0.104269785680481,231.4453125,-70.9233415924496,-119.91909749668
0.475,0.0720056088305352,0.10275113133141,231.93359375,-70.7470250848873,-120.424641543183
0.476,0.0639964144548992,0.302298257836707,232.421875,-69.372658567543,-121.255950887284
0.477,0.0493227120592611,0.468079390791032,232.91015625,-70.4120452845067,-120.999117780207
0.478,0.0337053660492684,0.579624777333207,233.3984375,-68.7949153220003,-120.072441663925
0.479,0.0213425264525969,0.624341219097921,233.88671875,-66.9692091912366,-120.335621847274
0.48,0.0139188818287044,0.598564467213556,234.375,-70.6854974823692,-121.350439204732
0.481,0.0106786905000955,0.507933899113685,234.86328125,-69.8276446573723,-121.103742584466
0.482,0.00936907791633602,0.366788641051125,235.3515625,-68.7332850919267,-120.312008973633
0.483,0.00757469757094714,0.19598885029563,235.83984375,-69.3884558440041,-120.286027842906
0.484,0.00386344699801025,0.0188898482428121,236.328125,-69.5375469848568,-121.290489763522
0.485,-0.00171855251232793,-0.143812303790284,236.81640625,-69.9574841494839,-121.367678226036
0.486,-0.00793372511090704,-0.278473807556017,237.3046875,-69.0529639649102,-120.434331369521
0.487,-0.0131482132336841,-0.379903795591574,237.79296875,-66.4629970698254,-120.360000395345
0.488,-0.0161320229712894,-0.448731159547631,238.28125,-65.6892668356781,-121.222351384486
0.489,-0.0164621311197682,-0.486079623782269,238.76953125,-68.7333399249818,-121.561035431023
0.49,-0.0144549162568159,-0.489023479642779,239.2578125,-69.4742511270162,-120.610794262449
0.491,-0.0108311558881701,-0.450339176556505,239.74609375,-65.7567694636122,-120.436465693375
0.492,-0.00636303573527726,-0.363450086765552,240.234375,-64.5265640821222,-121.131942110665
0.493,-0.00163341172585795,-0.22987974302344,240.72265625,-66.8307205628351,-121.683011406505
0.494,0.00306801072169603,-0.064628304418063,241.2109375,-70.5235309509713,-120.907350338383
0.495,0.00770115175150208,0.104076614172729,241.69921875,-70.5672460590474,-120.4313580113
0.496,0.0122698554202194,0.241215695384857,242.1875,-69.9557560172742,-121.108236252538
0.497,0.0165060344301635,0.315314006041069,242.67578125,-70.9411459566724,-121.808521342413
0.498,0.0196094144026313,0.309053644935188,243.1640625,-69.9846769689258,-121.082206281719
0.499,0.0202509385827251,0.226544913078508,243.65234375,-69.9234256173855,-120.535692348381
0.5,0.0169409479627209,0.0943468938031616,244.140625,-69.2508427201522,-121.001801316923
0.501,0.00866135382093625,-0.0450378067837552,244.62890625,-71.3312467727579,-121.929080506765
0.502,-0.0044981501173914,-0.145594396723907,245.1171875,-71.8948638149864,-121.215316452476
0.503,-0.0209846342267831,-0.171735296935452,245.60546875,-73.7658983415229,-120.734781692185
0.504,-0.0378974747820405,-0.108775806002156,246.09375,-73.3674394854461,-120.930785233673
0.505,-0.0516103597977635,0.0328837638442201,246.58203125,-70.4069323508027,-121.936869446296
0.506,-0.0587558286367596,0.219916210243427,247.0703125,-69.2884212139888,-121.538256345152
0.507,-0.0572663937090113,0.403262369630431,247.55859375,-72.4662758991409,-120.776367900195
0.508,-0.0471091747304175,0.529058610773685,248.046875,-75.2108349251376,-120.934673222888
0.509,-0.0304545609959025,0.551963084330215,248.53515625,-70.9115025591373,-121.854503539434
0.51,-0.0112149471312565,0.448743887337368,249.0234375,-71.5677682041195,-121.80986306175
0.511,0.00594402126369947,0.228690033379992,249.51171875,-74.1601340348785,-120.937237196961
0.512,0.016905730655322,-0.0634640175875665,250,-71.9175108618943,-120.955866626305
0.513,0.0193924233120116,-0.355505194101535,250.48828125,-70.41546513354,-121.755431086106
0.514,0.0138164083778289,-0.56660798376161,250.9765625,-69.1905478095783,-122.031893910972
0.515,0.00329600036631295,-0.632333209479338,251.46484375,-68.2739982581359,-121.115687053185
0.516,-0.00731446878297741,-0.527356039523377,251.953125,-67.9524661749908,-120.945825959648
0.517,-0.013135133524709,-0.277151834962741,252.44140625,-69.0459407567016,-121.735116791611
0.518,-0.0111075762969066,0.0467738754792243,252.9296875,-70.7153005676055,-122.153551707726
0.519,-0.00123962042004326,0.347681441537718,253.41796875,-73.8325545126281,-121.327090182681
0.52,0.0133093003236777,0.533919233485896,253.90625,-75.3081824591858,-120.997405485838
0.521,0.0274045992863749,0.548386549935981,254.39453125,-74.5454934485883,-121.665988188623
0.522,0.0359323178914188,0.386724171210146,254.8828125,-73.6538345279743,-122.23735062433
0.523,0.0357956785321698,0.097851619910352,255.37109375,-74.0812168924007,-121.564432999255
0.524,0.0270813623074516,-0.232991464983777,255.859375,-78.2156641331108,-121.00838291528
0.525,0.0129319491316964,-0.512216898554227,256.34765625,-74.3740100010793,-121.63815461836
0.526,-0.00175973164605326,-0.666842305408501,256.8359375,-72.3373710413193,-122.310050720962
0.527,-0.0122067781202818,-0.664852209202987,257.32421875,-69.5273473481447,-121.737866997734
0.528,-0.0153299992573847,-0.521206198247416,257.8125,-72.1371301504311,-121.177736622173
0.529,-0.010541810763832,-0.288913116071527,258.30078125,-75.3469604094768,-121.514564691448
0.53,0.000384601357533599,-0.0392052165543207,258.7890625,-76.3993467796294,-122.379779027452
0.531,0.0140895712946607,0.162109253146638,259.27734375,-74.0116037705678,-121.964231132405
0.532,0.0266728542308479,0.274191080432721,259.765625,-72.6392767074831,-121.267112622194
0.533,0.0347236220630147,0.290519439140983,260.25390625,-72.4519731316758,-121.491541977424
0.534,0.0361478348110658,0.23592809356149,260.7421875,-73.2754200688676,-122.359941896309
0.535,0.030649421645488,0.153638202220857,261.23046875,-73.4722371542457,-122.200339534509
0.536,0.0197470876972206,0.0877677636524543,261.71875,-74.8007339629512,-121.36645438913
0.537,0.00628342942535991,0.0678354861860235,262.20703125,-73.1989049591833,-121.479899347002
0.538,-0.00647679510930311,0.100491180896329,262.6953125,-71.5007676133474,-122.325218998897
0.539,-0.0159068661703888,0.170455616128139,263.18359375,-69.4421748811467,-122.359446792706
0.54,-0.0208889961787729,0.248765017766868,263.671875,-67.6349755136796,-121.55368305854
0.541,-0.0221670316052417,0.303951419747895,264.16015625,-67.9504646802882,-121.449448462568
0.542,-0.0219996828296105,0.311921865882086,264.6484375,-71.127102214901,-122.299239271782
0.543,-0.0231844061575148,0.262148108470518,265.13671875,-73.7616879164656,-122.521450232621
0.544,-0.027801670673277,0.159526199509636,265.625,-75.571255953846,-121.706451449302
0.545,-0.0362039550247009,0.0221406327289398,266.11328125,-73.8629444451149,-121.495244259129
0.546,-0.046713108807955,-0.1242311559785,266.6015625,-71.9245130749832,-122.212111437864
0.547,-0.056183172614178,-0.253174189903277,267.08984375,-72.3281165034203,-122.639423717585
0.548,-0.0611884708206961,-0.343924268649192,267.578125,-73.0198130283885,-121.927407833191
0.549,-0.0593269425917295,-0.384971266193605,268.06640625,-73.6676321094887,-121.524976185167
0.55,-0.0501115193364847,-0.374421107757991,268.5546875,-73.0468938627775,-122.142398274766
0.551,-0.0351270269079589,-0.317920426117865,269.04296875,-71.2043990636322,-122.727641951281
0.552,-0.0174323798470285,-0.225550098812191,269.53125,-71.8243448847313,-122.14789055529
0.553,-0.000467208515053383,-0.108996137744259,270.01953125,-75.1597301213803,-121.575799549896
0.554,0.0131039683508676,0.0201226959291714,270.5078125,-73.8150766510236,-122.078954195848
0.555,0.022165784802954,0.150478841427371,270.99609375,-71.5468346231775,-122.789358268328
0.556,0.0272680017141536,0.270125414238149,271.484375,-70.5672251419884,-122.330748709528
0.557,0.0300905938206174,0.365273027952196,271.97265625,-70.3004352733137,-121.680442933663
0.558,0.0325320518032835,0.42001226496119,272.4609375,-71.2030021267151,-122.003439748488
0.559,0.0358184587300479,0.418290891524104,272.94921875,-74.4114161575337,-122.818206659741
0.56,0.0399688150907665,0.348427385188881,273.4375,-73.1166964016246,-122.532724097834
0.561,0.0437714833760138,0.208575526353083,273.92578125,-72.3119637748457,-121.787098816649
0.562,0.0452397630476315,0.0105084009021854,274.4140625,-70.9236567890595,-121.96049906087
0.563,0.0423814905472956,-0.22003506117605,274.90234375,-70.649259567147,-122.817990281641
0.564,0.0340333116762099,-0.44646503458647,275.390625,-72.4343575254084,-122.697560118745
0.565,0.0204772467517083,-0.62709734724092,275.87890625,-73.8002345497355,-121.924227362544
0.566,0.00360673250668435,-0.722978360804453,276.3671875,-74.1601046217249,-121.950431166815
0.567,-0.0134531929864008,-0.707292480146976,276.85546875,-74.964269042131,-122.755345547116
0.568,-0.0271846850341897,-0.574765556806507,277.34375,-74.9282966941707,-122.876781051031
0.569,-0.034720704556791,-0.347620074585084,277.83203125,-73.4761726776612,-122.085616269212
0.57,-0.0347417018201333,-0.0738773548595556,278.3203125,-72.9263282905885,-121.938710354579
0.571,-0.0278894202461061,0.184112111271166,278.80859375,-73.0977611985721,-122.699813100897
0.572,-0.0165099448940626,0.36839959963027,279.296875,-74.0526321928703,-123.010305611969
0.573,-0.00379699324168765,0.444439280253693,279.78515625,-75.5305757926774,-122.264752714131
0.574,0.00731216047154232,0.412234741411012,280.2734375,-76.8110608484389,-121.951817048263
0.575,0.0149951488279874,0.304818757342792,280.76171875,-76.0771171457815,-122.63449839325
0.576,0.0187993435188981,0.17500917708157,281.25,-76.0105157442549,-123.108600636384
0.577,0.0192859800549833,0.0761833483930706,281.73828125,-72.7290515617502,-122.445331953644
0.578,0.0173750095807969,0.044489761817785,282.2265625,-73.5593823048088,-122.003381306638
0.579,0.0137774886367215,0.088450243351785,282.71484375,-75.9094233404822,-122.560349917356
0.58,0.00874677530963354,0.188618260048675,283.203125,-78.1256377176071,-123.181117912978
0.581,0.00217154747103378,0.306403579331649,283.69140625,-75.231985346214,-122.640018496892
0.582,-0.00608528266323227,0.398425457680132,284.1796875,-73.4296831754361,-122.064745036196
0.583,-0.0157403303073023,0.431329481472618,284.66796875,-74.4116007401801,-122.501420709853
0.584,-0.0257248322807801,0.392165338256427,285.15625,-75.4890553994183,-123.210821085147
0.585,-0.034135085489551,0.291135253150688,285.64453125,-78.6194255598342,-122.829041530348
0.586,-0.0386608818239889,0.156183551129585,286.1328125,-81.4573495534349,-122.155841852259
0.587,-0.0374283825076081,0.021659761697746,286.62109375,-77.6753640215918,-122.440311833876
0.588,-0.0299367332839076,-0.0846132601213559,287.109375,-78.0093210039208,-123.221792178466
0.589,-0.0176485657756778,-0.150960607564685,287.59765625,-76.5040398162484,-123.009165818253
0.59,-0.00388640900847677,-0.184716228796125,288.0859375,-75.3569993283448,-122.274326473435
0.591,0.00705029699776446,-0.207574656257271,288.57421875,-75.3891439131592,-122.397712553684
0.592,0.0113024937619989,-0.245215538196369,289.0625,-75.9266443915738,-123.187395521662
0.593,0.0068888306513394,-0.314831764291553,289.55078125,-71.324455533384,-123.175410210367
0.594,-0.00543014869315737,-0.415377149514629,290.0390625,-70.9403982801123,-122.410849364909
0.595,-0.022263967592374,-0.525089816001774,290.52734375,-72.9304893870957,-122.373501424276
0.596,-0.0386710315090936,-0.608188663521103,291.015625,-75.5736656725079,-123.149769943263
0.597,-0.0497601786867109,-0.628256798377735,291.50390625,-72.6532820567798,-123.317136766852
0.598,-0.0521621096208409,-0.562266138944333,291.9921875,-72.4202813899655,-122.564829594233
0.599,-0.0448481146672486,-0.409039723020466,292.48046875,-73.3907949043408,-122.37175710071
0.6,-0.0291286767543745,-0.189410494536734,292.96875,-76.1739842085715,-123.080428668734
0.601,-0.00800686275033012,0.0602827349086708,293.45703125,-74.4577841316986,-123.435180343469
0.602,0.0147745688786257,0.297597134163286,293.9453125,-75.3501755931159,-122.734461470348
0.603,0.0356658984159694,0.483291103683429,294.43359375,-76.4433310626713,-122.395126114837
0.604,0.0519906257877725,0.589259784942782,294.921875,-75.5529513041995,-123.00528250044
0.605,0.0622549841181011,0.604513140782635,295.41015625,-73.8742806644647,-123.521362058034
0.606,0.0660996333422017,0.538014226240703,295.8984375,-74.864364201071,-122.915279643507
0.607,0.0640303713833337,0.416575516727401,296.38671875,-74.7380802079835,-122.436897689138
0.608,0.0571076029987586,0.276834360344527,296.875,-74.1467040192795,-122.940031255622
0.609,0.046699312622211,0.152881320175293,297.36328125,-74.310861216386,-123.565313279312
0.61,0.0342863711767331,0.0640163166589805,297.8515625,-74.0509596846147,-123.098266325196
0.611,0.0212739749675996,0.00823663761612618,298.33984375,-74.9203253482734,-122.507365453769
0.612,0.00883131453217516,-0.0349050160563615,298.828125,-74.7704413756221,-122.873004249369
0.613,-0.00215717438039384,-0.0928303469992114,299.31640625,-76.0581595304953,-123.588448394704
0.614,-0.0110012357713453,-0.184892677757411,299.8046875,-70.9216342747418,-123.26847339945
0.615,-0.0170855668495496,-0.310471614452927,300.29296875,-70.6946309075725,-122.606283803432
0.616,-0.0199050364070191,-0.445459752989879,300.78125,-72.9761956093001,-122.81445968123
0.617,-0.019346479321834,-0.548966386870139,301.26953125,-72.042550784093,-123.575114073893
0.618,-0.0161066324436817,-0.578009394615167,301.7578125,-73.215174864064,-123.437764854388
0.619,-0.0119631314797433,-0.504565472507081,302.24609375,-74.5415459503493,-122.718809988276
0.62,-0.0095932331698301,-0.328074426885465,302.734375,-73.9797343443831,-122.779099165047
0.621,-0.0118035731265237,-0.0781981043020674,303.22265625,-73.2344965448997,-123.538034304296
0.622,-0.0203426367803799,0.193374757546394,303.7109375,-76.4754458263756,-123.586542304054
0.623,-0.0347788658538367,0.428858348018945,304.19921875,-75.5073267832632,-122.855128154339
0.624,-0.0520538504561964,0.581896302368767,304.6875,-75.8818281696044,-122.758054297981
0.625,-0.0671170800587332,0.6303693698401,305.17578125,-77.3373756190796,-123.482968290554
0.626,-0.0745479754433205,0.580636477853548,305.6640625,-76.8176330751851,-123.714187128735
0.627,-0.0705332842046644,0.462942405673642,306.15234375,-75.1809753359577,-123.003093324967
0.628,-0.0543357129382723,0.320465929671458,306.640625,-73.3015101870044,-122.761669130638
0.629,-0.0286253867891145,0.195546895850359,307.12890625,-74.7206659609673,-123.416437154691
0.63,0.00139987638188839,0.116701716055179,307.6171875,-75.2111454876965,-123.80888379411
0.631,0.029650918009654,0.0900111576446884,308.10546875,-75.6469851952224,-123.165852122625
0.632,0.0508634714197485,0.0980551095296331,308.59375,-75.9119056184972,-122.787883089212
0.633,0.061834711217016,0.107712019201921,309.08203125,-75.5199726868393,-123.341460380188
0.634,0.0619102725150948,0.0846768349433268,309.5703125,-75.016341266696,-123.875893138982
0.635,0.0527386956308004,0.00897760121035055,310.05859375,-74.816079245244,-123.336968824924
0.636,0.0375108585384354,-0.115637580654072,310.546875,-75.0224458548784,-122.835762010315
0.637,0.0199895880240168,-0.263321325872167,311.03515625,-77.1415064906288,-123.272977341831
0.638,0.00360789542529274,-0.398320212873198,311.5234375,-75.2877756761838,-123.909558464734
0.639,-0.00918710048495986,-0.491667638757085,312.01171875,-74.0483852267318,-123.504738260201
0.64,-0.0172726416490653,-0.533626738590561,312.5,-73.2499697784126,-122.908667353174
0.641,-0.0208564270895697,-0.535193724506825,312.98828125,-73.9796013894256,-123.207105145002
0.642,-0.0211544242748441,-0.517925528110465,313.4765625,-77.8600809343306,-123.916416198248
0.643,-0.0197884826301861,-0.49801567190684,313.96484375,-76.7480099095726,-123.669383953756
0.644,-0.0180629825146495,-0.473974792085677,314.453125,-77.758040347789,-123.001883422248
0.645,-0.0163972637073182,-0.425245477939273,314.94140625,-76.5965771815349,-123.158551934891
0.646,-0.0141883724699325,-0.322837885416247,315.4296875,-79.1659513425325,-123.888699057556
0.647,-0.0102075023229595,-0.146545017000487,315.91796875,-80.1421804956095,-123.822170316452
0.648,-0.00338080140229927,0.0998588727193499,316.40625,-76.4929068376238,-123.117069412223
0.649,0.00639127928109051,0.382735419180472,316.89453125,-74.0670987066069,-123.122979894967
0.65,0.0177686900821557,0.64494428479323,317.3828125,-75.9559696934608,-123.845570324203
0.651,0.0281282115598624,0.822257711467805,317.87109375,-73.9811592551233,-123.952573834976
0.652,0.0343581349303955,0.863763862032849,318.359375,-74.8647533579448,-123.250903520389
0.653,0.0340222925644521,0.748843905623294,318.84765625,-75.6548355396966,-123.106675665364
0.654,0.0264201156090064,0.494896438108719,319.3359375,-78.7835643876453,-123.784417795503
0.655,0.0130597663949825,0.153808236396963,319.82421875,-77.1874928159085,-124.063670863959
0.656,-0.0027102184114828,-0.200652905862125,320.3125,-77.9276483670158,-123.395233779332
0.657,-0.0167965820280195,-0.490018258973538,320.80078125,-77.7376421653503,-123.113898011664
0.658,-0.0257570889028985,-0.648686534750379,321.2890625,-79.416634110881,-123.715142881874
0.659,-0.0279645141900697,-0.639161176386235,321.77734375,-78.212190403552,-124.142349634536
0.66,-0.0241222119200887,-0.462661504688153,322.265625,-76.3906563116465,-123.552411400998
0.661,-0.0169534684685871,-0.16201918379496,322.75390625,-75.6818316296994,-123.142574196157
0.662,-0.0101517573139519,0.186183706335359,323.2421875,-75.1886400327253,-123.641044422893
0.663,-0.00692460437388519,0.490615053599243,323.73046875,-77.02428238039,-124.193006789853
0.664,-0.0086511009971208,0.671040027470233,324.21875,-76.1970713781096,-123.712975856191
0.665,-0.0142119153573422,0.682720352627782,324.70703125,-74.7456849640693,-123.194283935661
0.666,-0.0203481120823399,0.530354737014757,325.1953125,-71.3990342984554,-123.57188874085
0.667,-0.0229894153999114,0.265851122414176,325.68359375,-74.8441654724676,-124.21288106346
0.668,-0.0190498978121009,-0.0297905348203714,326.171875,-75.3309426975933,-123.871263004231
0.669,-0.00794935712014293,-0.2740118687645,326.66015625,-75.6855078399871,-123.2675623865
0.67,0.00779919916864135,-0.409424390041875,327.1484375,-75.9958581712319,-123.511461861241
0.671,0.0232417290756575,-0.420017423058893,327.63671875,-76.2102835851162,-124.205076969209
0.672,0.0327086911185193,-0.331735174286994,328.125,-74.7214753875172,-124.021960098978
0.673,0.032019016217771,-0.198610261909868,328.61328125,-74.3144524613423,-123.362702112112
0.674,0.0203210694255154,-0.0805979287733703,329.1015625,-75.9881269053512,-123.463905880416
0.675,0.000780309256731037,-0.0214071547874413,329.58984375,-78.1246775886574,-124.171432795738
0.676,-0.0202836751581834,-0.0341432895500291,330.078125,-76.6610582072033,-124.160256104145
0.677,-0.0355821256372364,-0.0997060001645304,330.56640625,-77.5467885474832,-123.476184764954
0.678,-0.0395494868008081,-0.177930775765521,331.0546875,-78.1250286374203,-123.43306186345
0.679,-0.0304854906607238,-0.226186646881562,331.54296875,-77.6655745820896,-124.119139711225
0.68,-0.0113111098129588,-0.217259155874234,332.03125,-79.2219135418557,-124.278257346276
0.681,0.011352890854479,-0.14914196237546,332.51953125,-81.051122793549,-123.605777049354
0.682,0.0294683701196342,-0.04307522253016,333.0078125,-80.5214786222362,-123.421731423437
0.683,0.0364265792198617,0.0686087200830258,333.49609375,-79.1667028752661,-124.054030257244
0.684,0.0294286649949382,0.15837536692419,333.984375,-81.723814164924,-124.370294831779
0.685,0.0104957000916204,0.214801762365474,334.47265625,-77.6654820122053,-123.748826025322
0.686,-0.0142818874667464,0.243930766403223,334.9609375,-77.17568130232,-123.430806050826
0.687,-0.0369354306105874,0.26125627859451,335.44921875,-78.981397133319,-123.981767194099
0.688,-0.050367747658132,0.279810439662293,335.9375,-79.3372826774616,-124.436019267113
0.689,-0.0506284994321476,0.300890003430666,336.42578125,-80.9410857981537,-123.898333416745
0.69,-0.037961523783434,0.311663392594995,336.9140625,-79.7965350897345,-123.462337554933
0.691,-0.0163921683717573,0.290282699152177,337.40234375,-78.2823905836448,-123.908788003822
0.692,0.00785905309720158,0.215948769165397,337.890625,-79.887252268869,-124.471200381441
0.693,0.0285100555743562,0.0797118472974589,338.37890625,-80.4420365144919,-124.050830129478
0.694,0.041170149323023,-0.108101048502327,338.8671875,-81.1618065335049,-123.515909510167
0.695,0.0445026805063206,-0.31668614664521,339.35546875,-77.7924164379629,-123.841210406287
0.696,0.0402775029603551,-0.500964068172661,339.84375,-78.0775572266614,-124.478459558454
0.697,0.0323743623099621,-0.614237929782091,340.33203125,-77.4522775410242,-124.198681518175
0.698,0.0251399801626977,-0.623728932738939,340.8203125,-80.6905437189022,-123.591901497077
0.699,0.0216809651212719,-0.523303870390516,341.30859375,-81.6911419665861,-123.782408815819
0.7,0.0226567720835805,-0.337836199077153,341.796875,-74.265892751102,-124.46004226591
0.701,0.0259718636524445,-0.116591062956537,342.28515625,-74.0858773318236,-124.337404221373
0.702,0.0275134040889109,0.0824491275537556,342.7734375,-76.0086011097329,-123.687329098081
0.703,0.0227630659036718,0.211499481231307,343.26171875,-76.7698255134958,-123.737670362267
0.704,0.00876776223339389,0.247963272408358,343.75,-75.9892400385111,-124.418929890106
0.705,-0.0142776150671322,0.200160853654463,344.23828125,-76.0981219276012,-124.461969995681
0.706,-0.0425228635114998,0.10231965104914,344.7265625,-76.5992445053318,-123.799335725478
0.707,-0.0693364866695935,0.00131490070329179,345.21484375,-75.2477162173449,-123.710717784037
0.708,-0.0873432088941457,-0.0596505391626567,345.703125,-75.8058699675534,-124.361282897028
0.709,-0.0909676801098067,-0.0545684172606556,346.19140625,-74.5657221173216,-124.564172023484
0.71,-0.0785940427365726,0.0188329207278661,346.6796875,-73.2629471968865,-123.926688456837
0.711,-0.0534754096481183,0.140592599008809,347.16796875,-73.8389640716391,-123.702979402535
0.712,-0.0228685552290879,0.276460734327429,347.65625,-76.1212138100551,-124.292526099355
0.713,0.00446883680633359,0.389286910711141,348.14453125,-77.0936401851879,-124.642782860479
0.714,0.02150534628288,0.450136822107861,348.6328125,-77.9331870699754,-124.063753426917
0.715,0.0255089598230804,0.445342339769862,349.12109375,-78.8694200065525,-123.716400974486
0.716,0.0187983703332151,0.3772858667736,349.609375,-78.5880042786731,-124.218752043734
0.717,0.00735296752168026,0.259861846536465,350.09765625,-76.5824517011707,-124.693674448947
0.718,-0.00202728461630708,0.112131725142286,350.5859375,-76.1913936415082,-124.207005217297
0.719,-0.00470243114461917,-0.0462989875956252,351.07421875,-74.9401224948818,-123.750808714484
0.72,-2.93524725267314e-05,-0.196965863975892,351.5625,-74.8219735020919,-124.146367205998
0.721,0.0086743060118228,-0.3225872618408,352.05078125,-76.9627795732881,-124.716439964835
0.722,0.0159700800120399,-0.407552787122509,352.5390625,-80.5052919440335,-124.350608053401
0.723,0.0171204645032096,-0.439883912273052,353.02734375,-82.4845113277713,-123.806761134563
0.724,0.0106237856863526,-0.414079630358997,353.515625,-82.4011461158282,-124.08000211089
0.725,-0.000728969063865323,-0.333431651154835,354.00390625,-82.3678020699698,-124.712527100305
0.726,-0.0108226054682388,-0.210597096454034,354.4921875,-81.6573025545986,-124.489088986308
0.727,-0.0128193239000107,-0.0658511957206996,354.98046875,-80.3936348177042,-123.882970503611
0.728,-0.00225701102505553,0.0768632562108458,355.46875,-77.3185786928892,-124.024246498437
0.729,0.0206639429728169,0.195109845029971,355.95703125,-76.0882320642212,-124.684414755963
0.73,0.0505160143442082,0.272606926438019,356.4453125,-76.8607202141118,-124.616341437947
0.731,0.0780506807604832,0.301733998599481,356.93359375,-78.6341910712411,-123.97793467152
0.732,0.0931816539387922,0.28348564164385,357.421875,-78.8250806658042,-123.983216376574
0.733,0.088624889845025,0.225741351060728,357.91015625,-81.0960520702968,-124.636483793319
0.734,0.0629217272915677,0.141102087759589,358.3984375,-81.4847075417189,-124.727320503951
0.735,0.0215862850026971,0.0450669694800233,358.88671875,-80.6421472074966,-124.088761670987
0.736,-0.0243062317087986,-0.0455138215719662,359.375,-79.4255909235795,-123.959724993658
0.737,-0.0617574181548928,-0.114547248372375,359.86328125,-77.2839831487148,-124.573607647533
0.738,-0.0803926238387721,-0.150262841988093,360.3515625,-80.1312794289702,-124.816982458496
0.739,-0.0761556390196551,-0.14987931815679,360.83984375,-77.757414280941,-124.212745395154
0.74,-0.0527063780841178,-0.123078073245142,361.328125,-75.7101836033574,-123.955230908122
0.741,-0.0200075520086471,-0.0911661459279856,361.81640625,-76.2025900892138,-124.50236901695
0.742,0.00928363061871072,-0.0802993643009757,362.3046875,-79.8369264555569,-124.881869900039
0.743,0.0241719379273926,-0.110328146281797,362.79296875,-80.5786525946471,-124.34530091354
0.744,0.0188038919772698,-0.18386934374646,363.28125,-82.5340934471325,-123.971409307723
0.745,-0.00604266994337106,-0.281232391454163,363.76953125,-80.5910229101393,-124.428004082319
0.746,-0.0436652636029164,-0.364933441567371,364.2578125,-80.9370386071804,-124.919835420932
0.747,-0.0837156009618006,-0.393234011648312,364.74609375,-81.1344030797222,-124.481975907099
0.748,-0.115065273076887,-0.337361231367154,365.234375,-80.8907256802134,-124.008470636522
0.749,-0.128441231422144,-0.194530821897392,365.72265625,-79.8680670167487,-124.356203040697
0.75,-0.118420046271558,0.00944556751281789,366.2109375,-82.4268630448611,-124.930916011248
0.751,-0.0846420460837493,0.228955979143693,366.69921875,-80.9411940363232,-124.617354894841
0.752,-0.0321186574692797,0.41420529322451,367.1875,-80.0248269102604,-124.066040989656
0.753,0.029557011924778,0.526627081050668,367.67578125,-81.7666220222675,-124.291842304024
0.754,0.088165415430007,0.548666992328994,368.1640625,-81.8983728881674,-124.916630372355
0.755,0.131690748085403,0.486094966280067,368.65234375,-81.4400344664582,-124.745728692913
0.756,0.15133140287225,0.363761599459864,369.140625,-79.7537857279636,-124.143262742383
0.757,0.14379804696979,0.216706970166875,369.62890625,-77.6565139270787,-124.238877716159
0.758,0.112135459361066,0.0789080581775264,370.1171875,-77.5606008203274,-124.880321458286
0.759,0.0647340105386444,-0.0271669702135981,370.60546875,-79.1460238683236,-124.861862212789
0.76,0.0128017335492457,-0.0963302999593827,371.09375,-82.6940608772565,-124.237637995724
0.761,-0.0328569374530046,-0.139005395966295,371.58203125,-79.3571469596438,-124.201077228475
0.762,-0.0646163312849633,-0.172528830080574,372.0703125,-79.0990426996817,-124.826117458519
0.763,-0.0794059360703196,-0.209453502274436,372.55859375,-80.2827618200656,-124.960622730045
0.764,-0.0783843587762059,-0.248802224988266,373.046875,-84.6575043148884,-124.346898862656
0.765,-0.0653901512580437,-0.275126818945342,373.53515625,-87.2850250163995,-124.180578270562
0.766,-0.0450988329365745,-0.266320900555605,374.0234375,-83.007525781902,-124.759525974269
0.767,-0.0216967029509766,-0.206369755766306,374.51171875,-82.8667264264409,-125.037701556278
0.768,0.00162210832618932,-0.0963303407486329,375,-84.044045964174,-124.4673719206
0.769,0.0225196322357627,0.0425221126677449,375.48828125,-84.3887255001698,-124.179399778053
0.77,0.0391416398968587,0.175562791487956,375.9765625,-81.7791802395495,-124.686117142802
0.771,0.0498713281771993,0.268657527590984,376.46484375,-79.5490683590705,-125.090004482794
0.772,0.0534056517030038,0.302137304581476,376.953125,-79.3163598538515,-124.595020337439
0.773,0.0491365430729815,0.278024088752637,377.44140625,-80.7398863294367,-124.198394290489
0.774,0.0376053483311875,0.217379850572683,377.9296875,-81.7098096619342,-124.611347119497
0.775,0.0206957014432319,0.149672677536599,378.41796875,-82.3547990645134,-125.116189978035
0.776,0.00133852379614522,0.0993295889719217,378.90625,-80.9629743722434,-124.725052625636
0.777,-0.0172326328907912,0.0751099381644953,379.39453125,-82.8827371203471,-124.23774245847
0.778,-0.0323990243412284,0.0664386659819548,379.8828125,-82.5558285705986,-124.540425288364
0.779,-0.0428878881400311,0.048263185222526,380.37109375,-80.1734101645474,-125.116609073064
0.78,-0.0490280253685866,-0.00728910839394098,380.859375,-81.1072668077407,-124.852229736561
0.781,-0.0523936801277663,-0.117159624452946,381.34765625,-80.3262448814964,-124.296799758428
0.782,-0.0548974885293317,-0.277250979075022,381.8359375,-80.9144474107419,-124.477931383348
0.783,-0.0576275903336454,-0.460115985616871,382.32421875,-85.030157234602,-125.093234180756
0.784,-0.0599350205844753,-0.621454774380741,382.8125,-81.7939564148037,-124.971188044241
0.785,-0.0592964409118819,-0.713325300146077,383.30078125,-82.361320376525,-124.374297672395
0.786,-0.0521704053539959,-0.699760914756894,383.7890625,-84.707209453252,-124.427623848155
0.787,-0.0355546993330682,-0.569516777264283,384.27734375,-82.7972961278807,-125.049602367224
0.788,-0.00857389724026892,-0.341329202357254,384.765625,-79.7144452758813,-125.076610008225
0.789,0.0265866130986299,-0.0594492954578232,385.25390625,-78.6520974785815,-124.46804721295
0.79,0.0647958145192912,0.219292289261635,385.7421875,-80.6918236693468,-124.392698972909
0.791,0.099164640957294,0.442217861395706,386.23046875,-77.2549994216248,-124.990144788698
0.792,0.122994956014853,0.575035426878631,386.71875,-78.496659892135,-125.163819908788
0.793,0.131884051663439,0.608680203029617,387.20703125,-79.4931219139919,-124.575236203025
0.794,0.125177986644872,0.557555009855383,387.6953125,-80.7717134513395,-124.375346624021
0.795,0.106050347401275,0.451514858940761,388.18359375,-81.4246566415531,-124.920197874813
0.796,0.0799860871223548,0.325495542070176,388.671875,-82.6398747327924,-125.228983747554
0.797,0.0522082866352634,0.210126726154224,389.16015625,-86.224720774508,-124.692266346886
0.798,0.0251793037576004,0.125103711183118,389.6484375,-85.8272319671761,-124.377087128888
0.799,-0.00261502998471083,0.0758421883778849,390.13671875,-84.2230462929815,-124.845071529307
0.8,-0.0358729264457609,0.0536974685580292,390.625,-78.1240061554879,-125.269640721378
0.801,-0.0797688856264211,0.040234361353881,391.11328125,-80.5899207954352,-124.814965004251
0.802,-0.136255515589147,0.0153014986640544,391.6015625,-80.5365103097916,-124.398604719185
0.803,-0.200858713307825,-0.0334547825304406,392.08984375,-80.7184444387804,-124.770123062076
0.804,-0.261524768126288,-0.103867306844056,392.578125,-78.8911435832849,-125.284909163589
0.805,-0.300548686510378,-0.178926322480429,393.06640625,-79.5866648799117,-124.938511032821
0.806,-0.299533189946206,-0.233213176852834,393.5546875,-82.6531706464715,-124.439866533994
0.807,-0.246019632030927,-0.242940917982873,394.04296875,-84.9557461685973,-124.700181937563
0.808,-0.139432451568152,-0.195224246060779,394.53125,-79.7243937832442,-125.275584343945
0.809,0.00618378385430049,-0.0934505370798138,395.01953125,-81.8683963181834,-125.057733526628
0.81,0.164228522716206,0.0423887763710328,395.5078125,-82.3434603630118,-124.500113304259
0.811,0.302218175681555,0.180175428929014,395.99609375,-82.7860785957162,-124.639528960234
0.812,0.390960868841616,0.283893568812631,396.484375,-78.6264057118682,-125.244025250638
0.813,0.412997580002312,0.323785866070396,396.97265625,-78.8092598038684,-125.167420418862
0.814,0.367301633877385,0.285885402057505,397.4609375,-78.7888869725433,-124.577781079711
0.815,0.26869720271128,0.17795333325889,397.94921875,-80.0108635115709,-124.591723142124
0.816,0.142475210391754,0.0290741549454578,398.4375,-81.622336608017,-125.193889113785
0.817,0.016378418095188,-0.11840941760547,398.92578125,-80.8474790493584,-125.262572198674
0.818,-0.0871568575919263,-0.223030222016029,399.4140625,-80.5278919373237,-124.670629883271
0.819,-0.156048537188015,-0.25953269565209,399.90234375,-78.7494805254113,-124.559536398885
0.82,-0.189694784966904,-0.229053089426529,400.390625,-79.3556411511289,-125.129801416268
0.821,-0.196409055498595,-0.159340880045726,400.87890625,-79.8712694043941,-125.338818241874
0.822,-0.188512369445309,-0.0941848662673559,401.3671875,-78.5099189350826,-124.77564572666
0.823,-0.176978668451108,-0.0757556391124596,401.85546875,-77.7220589058616,-124.545010506769
0.824,-0.167480337663212,-0.126739718919814,402.34375,-77.1745739084915,-125.056879902021
0.825,-0.159089749150249,-0.239577034111159,402.83203125,-82.7087190467408,-125.392833197186
0.826,-0.145893011725483,-0.377568382645183,403.3203125,-84.3550088991908,-124.889150808574
0.827,-0.12066460589464,-0.48794666550005,403.80859375,-83.8948427182274,-124.54939103548
0.828,-0.0789636318197018,-0.521962650607888,404.296875,-81.1243915785829,-124.980393169433
0.829,-0.0218989129548305,-0.453880143644722,404.78515625,-83.8759556818547,-125.422621601008
0.83,0.0435482792861498,-0.29120507197942,405.2734375,-81.4322370956783,-125.00686439546
0.831,0.106636112677897,-0.0723576635641235,405.76171875,-83.7851274057649,-124.573171784816
0.832,0.156348074254023,0.14671136331614,406.25,-84.8342483129595,-124.905385539914
0.833,0.184730738260668,0.311359853985076,406.73828125,-80.6035569628205,-125.427786749187
0.834,0.188865236032929,0.385658449462307,407.2265625,-81.8114433632365,-125.123982388601
0.835,0.171039762034112,0.362912719913258,407.71484375,-82.345477799545,-124.616133066861
0.836,0.137449949498863,0.266630657134775,408.203125,-84.0708898941615,-124.836456084923
0.837,0.0961282166934973,0.142034474539509,408.69140625,-81.1777992892932,-125.409511805325
0.838,0.0547800572537991,0.0406922607895034,409.1796875,-80.045463455285,-125.235454509972
0.839,0.0190180902603049,0.00303622459749201,409.66796875,-80.2828472508733,-124.677291443309
0.84,-0.00865614255746967,0.0446768251202986,410.15625,-82.1600670037043,-124.777592624391
0.841,-0.0288605158945964,0.151475485828216,410.64453125,-82.6605485491526,-125.37046354015
0.842,-0.0442473873306965,0.285251385595314,411.1328125,-84.4462729717565,-125.33620116182
0.843,-0.0576077583336341,0.397947711858085,411.62109375,-85.055576804328,-124.754961280662
0.844,-0.0698970930302767,0.448763517918036,412.109375,-83.5541830565121,-124.732081664267
0.845,-0.0791575801055365,0.417714269272417,412.59765625,-81.5530221729983,-125.314476204966
0.846,-0.0810565003004134,0.310987558846042,413.0859375,-80.1068727616421,-125.42149382001
0.847,-0.0710018312041133,0.157263415379512,413.57421875,-80.6242369158042,-124.846724963898
0.848,-0.0469206914327702,-0.00245188988891237,414.0625,-80.4079759126533,-124.702462651699
0.849,-0.0113333482021681,-0.127547715628103,414.55078125,-79.7001363284192,-125.246193764214
0.85,0.0283770376182429,-0.189442606939101,415.0390625,-80.6277096931451,-125.487340366468
0.851,0.0617523356565121,-0.179342767794106,415.52734375,-83.0951665564548,-124.949454459441
0.852,0.078402355256891,-0.110322186788485,416.015625,-83.450264352363,-124.690524750131
0.853,0.0712398075570929,-0.0131842935121569,416.50390625,-86.9656172907964,-125.170666946822
0.854,0.0386235482714025,0.0728692785622851,416.9921875,-79.2731395094639,-125.53083050112
0.855,-0.0151911078222599,0.112212973019366,417.48046875,-78.7638620630081,-125.059377005498
0.856,-0.0811817716041148,0.0838784946942232,417.96875,-81.6641929845326,-124.69730278578
0.857,-0.147664954760781,-0.0117704110791997,418.45703125,-85.5700855426126,-125.092993386032
0.858,-0.202679176971559,-0.152969785770467,418.9453125,-81.767568187872,-125.550440474581
0.859,-0.23615582952334,-0.303004163851041,419.43359375,-84.6291395866638,-125.172138515389
0.86,-0.241625953769195,-0.420833010775423,419.921875,-86.2157084469894,-124.72310926566
0.861,-0.217254779164066,-0.472357509718751,420.41015625,-88.7325915614419,-125.018002355923
0.862,-0.16592686576913,-0.438970430794294,420.8984375,-82.972431635097,-125.546184764087
0.863,-0.0942175276043143,-0.321372309806899,421.38671875,-85.4386374950778,-125.282968886991
0.864,-0.010503862724716,-0.13859055594847,421.875,-87.9589812780604,-124.767524024576
0.865,0.0770663987738059,0.0763180148355074,422.36328125,-86.6890461197437,-124.950044416165
0.866,0.161904216842502,0.282255611720903,422.8515625,-87.2483490901106,-125.519625089353
0.867,0.239102309145865,0.437140498164794,423.33984375,-85.1004965524405,-125.386885729712
0.868,0.30445590100132,0.506053491549157,423.828125,-84.9110862154183,-124.829409520227
0.869,0.353062253002593,0.469721043474971,424.31640625,-83.7949472430876,-124.892856361151
0.87,0.378478069452579,0.331058189722532,424.8046875,-81.9937766140483,-125.473674478756
0.871,0.373259221270373,0.116824309735807,425.29296875,-85.3602199759715,-125.478996352634
0.872,0.331064700236972,-0.127550480265126,425.78125,-84.0338835921104,-124.906912461178
0.873,0.24960630925709,-0.349678091354342,426.26953125,-85.7329526764397,-124.849476693048
0.874,0.133062520078379,-0.50551498308522,426.7578125,-81.4016569748368,-125.412308967687
0.875,-0.00736033978636602,-0.572980882045408,427.24609375,-86.2267343999727,-125.554843290756
0.876,-0.155169398764663,-0.557940969413602,427.734375,-84.4373667048834,-124.997473935498
0.877,-0.291923872284128,-0.489003365300223,428.22265625,-83.7002368290957,-124.82221320027
0.878,-0.400781360236212,-0.402770953690116,428.7109375,-81.4633782669786,-125.340192438473
0.879,-0.469029217682361,-0.32632662411533,429.19921875,-82.2844548501119,-125.610775238565
0.88,-0.489129313281937,-0.2654138001098,429.6875,-82.3147682496923,-125.09785199418
0.881,-0.458566355488706,-0.203858228066157,430.17578125,-83.2992364882061,-124.812640646486
0.882,-0.379193214740231,-0.114161592984092,430.6640625,-83.436283813635,-125.262293078716
0.883,-0.256782246714679,0.025950970558857,431.15234375,-82.187189523489,-125.644293656011
0.884,-0.101213903796031,0.218690057826642,431.640625,-86.5942855744293,-125.204176465718
0.885,0.0727969803453067,0.43991656124395,432.12890625,-83.7742473569324,-124.821601613823
0.886,0.245232445453254,0.644768679911301,432.6171875,-82.4331646631076,-125.183547184334
0.887,0.391854398011508,0.783484794929106,433.10546875,-83.1977902889801,-125.654297482852
0.888,0.487869180431666,0.820824984386907,433.59375,-85.3374218811624,-125.312054042371
0.889,0.513941375703693,0.750292086496622,434.08203125,-85.7719579643796,-124.849218934869
0.89,0.462667396871627,0.596589819041497,434.5703125,-85.0935960551044,-125.108581907328
0.891,0.342713407727122,0.405485875877116,435.05859375,-84.4183157921847,-125.641203011584
0.892,0.178374091101333,0.226008769564029,435.546875,-85.2697756860255,-125.416724512532
0.893,0.00402014399335067,0.0925584146753255,436.03515625,-85.6453119629216,-124.894903346853
0.894,-0.14510519162311,0.0136521495238064,436.5234375,-85.0321348710667,-125.041524574257
0.895,-0.242787571372091,-0.0287983625193977,437.01171875,-79.2149936739871,-125.606889156294
0.896,-0.278991828004022,-0.0694205026033915,437.5,-81.2750233915873,-125.51330029333
0.897,-0.261572450886264,-0.142186914527062,437.98828125,-82.0097543890766,-124.957356051378
0.898,-0.211771140417031,-0.26280040382437,438.4765625,-83.3624936841369,-124.985878512168
0.899,-0.155192503535611,-0.417983036589552,438.96484375,-80.4892946926576,-125.554497563545
0.9,-0.111940371663566,-0.5666646373054,439.453125,-80.5111547314825,-125.597064853147
0.901,-0.0900587060461728,-0.65363203743019,439.94140625,-85.6965678119891,-125.034573240792
0.902,-0.0848874521451179,-0.631257372443255,440.4296875,-85.8159370358921,-124.94445737924
0.903,-0.0840561921032146,-0.481218921605782,440.91796875,-82.2432059098381,-125.488117767528
0.904,-0.0751543982543057,-0.227196365954116,441.40625,-81.9704559008685,-125.663824450321
0.905,-0.0521408364743221,0.0677519668739063,441.89453125,-81.6611748436811,-125.123858680612
0.906,-0.0177150038930803,0.31960865911995,442.3828125,-82.2272816992163,-124.919357917177
0.907,0.0187188307473702,0.45151643583545,442.87109375,-82.8805673922771,-125.412420564421
0.908,0.0457282935688875,0.421087346143279,443.359375,-80.7840949880203,-125.710267531438
0.909,0.0546477015375494,0.236178019284604,443.84765625,-83.856047782735,-125.221854108439
0.91,0.0426478455700213,-0.0472373299806525,444.3359375,-83.6631838021401,-124.911955132101
0.911,0.0135125956893813,-0.344278275110772,444.82421875,-82.3907669795664,-125.332293631413
0.912,-0.0235132196067537,-0.569898015674414,445.3125,-85.1736730419391,-125.734280033072
0.913,-0.0561564777125068,-0.666137464009918,445.80078125,-86.2209686352151,-125.324605225361
0.914,-0.0722227735234246,-0.617814515434297,446.2890625,-88.1445776386707,-124.922907847059
0.915,-0.0627679633958796,-0.451558717825606,446.77734375,-83.9423477128934,-125.252524975886
0.916,-0.0246549300495899,-0.220313010500235,447.265625,-85.9421182009589,-125.735159139918
0.917,0.0381325637763789,0.0185948143201297,447.75390625,-83.4631437386283,-125.42767569542
0.918,0.11480340803979,0.222167812126879,448.2421875,-86.0463744915599,-124.952166458819
0.919,0.189749145418508,0.370803584871991,448.73046875,-84.4404002785822,-125.177554652699
0.92,0.245927311552251,0.466569078380913,449.21875,-84.4414894844412,-125.713684587172
0.921,0.269023385965576,0.523913750601061,449.70703125,-89.4722948272295,-125.526325943141
0.922,0.251459818514722,0.558052302285095,450.1953125,-86.0194361906746,-124.998977240773
0.923,0.195145173418931,0.576053729735309,450.68359375,-85.0521815991797,-125.11130240507
0.924,0.111971468638591,0.573993464561831,451.171875,-87.564159264337,-125.672031408565
0.925,0.0215295488821718,0.540936605108221,451.66015625,-84.0389246122793,-125.615760188029
0.926,-0.0537274263485854,0.467592312451129,452.1484375,-85.7255497165877,-125.061885693126
0.927,-0.0947645981624539,0.355119866764025,452.63671875,-83.6287850653733,-125.057059927681
0.928,-0.0919260425068368,0.218938476295409,453.125,-84.4848098143738,-125.613542512329
0.929,-0.0487053296687562,0.0843612542323069,453.61328125,-82.8303014221255,-125.691437748935
0.93,0.0180282229842531,-0.0248836030917219,454.1015625,-85.5356241550766,-125.138741493652
0.931,0.0817697941913553,-0.0996754133900925,454.58984375,-87.5042050305222,-125.01743465131
0.932,0.113443382538428,-0.152532623313911,455.078125,-85.3031495089317,-125.542406040037
0.933,0.0901688034694011,-0.213368168219035,455.56640625,-86.8854267358856,-125.749422634655
0.934,0.00341409328036592,-0.314350052317881,456.0546875,-91.0475775380766,-125.226714135286
0.935,-0.13594824243834,-0.470335908994073,456.54296875,-93.1060911546629,-124.994327172708
0.936,-0.297613314887846,-0.664383236371063,457.03125,-87.47891966375,-125.463294405887
0.937,-0.43760079431842,-0.846098606161326,457.51953125,-85.1534694947939,-125.786729514138
0.938,-0.509071185889447,-0.945191499348687,458.0078125,-89.2704702763385,-125.322331408622
0.939,-0.475985743691326,-0.896251712045234,458.49609375,-86.0268741010402,-124.988927998228
0.94,-0.326110264493616,-0.665883984419592,458.984375,-83.1082843172242,-125.381017222973
0.941,-0.079145713689468,-0.271571294675187,459.47265625,-86.7131287885709,-125.801612319709
0.942,0.213773987557491,0.216026341372959,459.9609375,-88.1204313641765,-125.421555045069
0.943,0.480852504749112,0.689633679647216,460.44921875,-86.2069041354791,-125.001722100893
0.944,0.648765256565795,1.03568082667753,460.9375,-83.8694786932503,-125.300226156963
0.945,0.664598360147896,1.16770461492779,461.42578125,-87.7406567934904,-125.793742091771
0.946,0.513115036000901,1.05097276445273,461.9140625,-84.2690777447608,-125.519909137113
0.947,0.222946360128505,0.710246641105051,462.40234375,-88.4536860082162,-125.032494291346
0.948,-0.140858217716543,0.219586615125041,462.890625,-86.1704766829736,-125.225189206354
0.949,-0.49551357384557,-0.31999981548348,463.37890625,-82.7304928255099,-125.764238914156
0.95,-0.764020670670305,-0.805889498496159,463.8671875,-86.1988900886499,-125.612673208967
0.951,-0.895675896562378,-1.15443773667257,464.35546875,-85.5331332137,-125.080332320188
0.952,-0.877147001951919,-1.31339768508381,464.84375,-85.48415877412,-125.159635980914
0.953,-0.73123353138126,-1.26640733648512,465.33203125,-84.825217642169,-125.715550958648
0.954,-0.504692487264075,-1.03116055981006,465.8203125,-86.2199989018018,-125.695143456418
0.955,-0.250080924690775,-0.652659857546586,466.30859375,-89.9291034115904,-125.143629064935
0.956,-0.00835588546485844,-0.192743145828675,466.796875,-88.3480799874806,-125.10666385131
0.957,0.201574837718199,0.282241705099543,467.28515625,-84.7252299977459,-125.651205559124
0.958,0.382916192554677,0.71277645657745,467.7734375,-84.1467120019863,-125.762951568806
0.959,0.551352219558493,1.05383792337747,468.26171875,-88.2843681162856,-125.220088874516
0.96,0.720404574875772,1.27792949496825,468.75,-89.4734575339814,-125.06868977064
0.961,0.88861310546907,1.37460873003443,469.23828125,-82.9782128635991,-125.575479848239
0.962,1.03451276272413,1.34847509715532,469.7265625,-83.2682503782452,-125.812412660619
0.963,1.12182471242921,1.21681938545364,470.21484375,-83.6904516656206,-125.306747375129
0.964,1.11270494158233,1.00679023007232,470.703125,-85.4854097630621,-125.047431776319
0.965,0.983382864838973,0.751164508948375,471.19140625,-86.9651643123081,-125.493046455123
0.966,0.735507912382485,0.482118325139267,471.6796875,-83.2316327065548,-125.840857137304
0.967,0.398343921615263,0.223735424515525,472.16796875,-86.9025090586577,-125.40001727217
0.968,0.0208643870542528,-0.0141813061386111,472.65625,-85.6635061489826,-125.043906574882
0.969,-0.342851766959967,-0.237438529584946,473.14453125,-83.9170361388443,-125.408642663189
0.97,-0.648764365795903,-0.461618323837863,473.6328125,-87.0994586968139,-125.846892515613
0.971,-0.87254136663368,-0.700125127352086,474.12109375,-87.6296957135213,-125.495775099564
0.972,-1.01057963764091,-0.950742544136141,474.609375,-88.9213725634345,-125.058433073673
0.973,-1.07323369881883,-1.18712346924319,475.09765625,-86.2894707294024,-125.326795177836
0.974,-1.07443756591901,-1.36045758139002,475.5859375,-87.3535170821285,-125.830546260646
0.975,-1.02307816425217,-1.41253714006116,476.07421875,-86.1887882000043,-125.589503525222
0.976,-0.920080725811234,-1.29640273218991,476.5625,-88.5020026594856,-125.090635872837
0.977,-0.762058099170369,-0.997236687108473,477.05078125,-85.2916572654581,-125.251614103264
0.978,-0.54916996617009,-0.545611970277783,477.5390625,-86.9682114317254,-125.793260798575
0.979,-0.292922423998605,-0.0174376515929477,478.02734375,-85.1510519688397,-125.676499486726
0.98,-0.0196261643141178,0.480989034647643,478.515625,-91.4085968850206,-125.139446802193
0.981,0.232975265774159,0.839678099474836,479.00390625,-90.9789045121302,-125.186654484028
0.982,0.425440499622305,0.976138790646309,479.4921875,-84.0612884141493,-125.737741725628
0.983,0.529268985878671,0.861645296342293,479.98046875,-86.543769754846,-125.752148649697
0.984,0.537294441742313,0.533732248788406,480.46875,-88.4490513321819,-125.203106632047
0.985,0.467242297404233,0.0894408948964822,480.95703125,-90.0591253165542,-125.134834179864
0.986,0.356576486425083,-0.340484742712751,481.4453125,-86.8516689573046,-125.667689739196
0.987,0.250414052712281,-0.629467351470791,481.93359375,-89.4761108800843,-125.812251586189
0.988,0.187144337617753,-0.692797017111783,482.421875,-89.9740712318388,-125.279173086904
0.989,0.187146531224623,-0.512234565718345,482.91015625,-89.7988882407913,-125.098392813061
0.99,0.248406914445323,-0.139273895743943,483.3984375,-84.8548274686879,-125.587466048013
0.991,0.349756887516305,0.323307468675946,483.88671875,-85.9432705294491,-125.853369226334
0.992,0.459408705476946,0.754369973904436,484.375,-89.2469240634214,-125.364545125545
0.993,0.544876189339174,1.05003297059696,484.86328125,-87.3400985819939,-125.078876621439
0.994,0.580780843104779,1.15025067911783,485.3515625,-84.9191051965274,-125.501745068931
0.995,0.552861015186097,1.04902447148132,485.83984375,-89.2460524481931,-125.873139916546
0.996,0.458447226425508,0.787645878082192,486.328125,-87.8852039427636,-125.455516714854
0.997,0.304709319931373,0.436111917501277,486.81640625,-91.6416705627425,-125.077136580726
0.998,0.105979328855791,0.070355984108973,487.3046875,-85.7864932925309,-125.415198718741
0.999,-0.119026643753927,-0.247664798876802,487.79296875,-86.8110965195249,-125.870514623262
1,-0.349662359754574,-0.482115144468582,488.28125,-85.0812796553965,-125.54787511008
1.001,-0.56523252815174,-0.625440426640959,488.76953125,-86.320780057566,-125.093330816702
1.002,-0.746166249069857,-0.69145354683087,489.2578125,-88.0236180828315,-125.332239628706
1.003,-0.87458933147238,-0.70321170175784,489.74609375,-87.0191282748399,-125.845865448012
1.004,-0.93480219977303,-0.680945423719435,490.234375,-90.225770671839,-125.637057575991
1.005,-0.914471689675642,-0.634434134063825,490.72265625,-89.7906988854422,-125.12692633209
1.006,-0.807119093868817,-0.561791667215232,491.2109375,-86.6937327062987,-125.256832903536
1.007,-0.615590609591247,-0.45397991360352,491.69921875,-84.9781985844536,-125.800945409897
1.008,-0.355108630301822,-0.302377531838219,492.1875,-87.8660742955478,-125.718374947574
1.009,-0.0540403675427597,-0.105829693961004,492.67578125,-85.0372093552397,-125.176699105602
1.01,0.248848858079811,0.125662387647654,493.1640625,-85.4436255150581,-125.192372271069
1.011,0.510475199469485,0.371167575818042,493.65234375,-86.1654235064626,-125.738707754265
1.012,0.691338088387679,0.601340045265417,494.140625,-85.5866823522693,-125.787299370973
1.013,0.763247426785472,0.781505298969628,494.62890625,-85.6724117559161,-125.240735623789
1.014,0.715282919510816,0.87552723063254,495.1171875,-87.4582885403694,-125.141608357808
1.015,0.557082333020433,0.852232746664242,495.60546875,-85.3303611773426,-125.663020498761
1.016,0.318945039660388,0.695201653041659,496.09375,-88.6116675084344,-125.839797563571
1.017,0.0483072876163188,0.413640438571227,496.58203125,-87.3112179870756,-125.316442875613
1.018,-0.197662863902346,0.0492808838272186,497.0703125,-87.6355981487961,-125.106613889557
1.019,-0.362895358478479,-0.326108836067298,497.55859375,-88.8456054380682,-125.578327598162
1.02,-0.405013508603417,-0.625272083888919,498.046875,-84.3737075379545,-125.872673223492
1.021,-0.30681078521522,-0.769609536660446,498.53515625,-91.5054164030162,-125.400577607453
1.022,-0.0831725715370713,-0.715122921085118,499.0234375,-96.5934242337687,-125.088771338936
1.023,0.219356982854779,-0.469928929783468,499.51171875,-90.2311347644681,-125.489308673678
1.024,0.531332546746415,-0.0955850884248246,500,-91.2264045523641,-128.894168641743
1.025,0.775983293816601,0.309085284181378,,,
1.026,0.887835386822598,0.635908823128667,,,
1.027,0.829385645872649,0.797121578150296,,,
1.028,0.601149121107724,0.74754880177459,,,
1.029,0.242207598787735,0.4938360634614,,,
1.03,-0.178965223017435,0.0901965907269792,,,
1.031,-0.581041263692804,-0.376635614024119,,,
1.032,-0.889553699431357,-0.809286140426202,,,
1.033,-1.05483001442644,-1.12390905266064,,,
1.034,-1.06350701576135,-1.27119291360334,,,
1.035,-0.940402223192827,-1.2480985392795,,,
1.036,-0.739863726658045,-1.09554192452678,,,
1.037,-0.528624324214493,-0.881488605255047,,,
1.038,-0.364954931157257,-0.674672104896651,,,
1.039,-0.280545484930961,-0.518256414345076,,,
1.04,-0.271068683724169,-0.413071528450304,,,
1.041,-0.298569990570598,-0.316820833229604,,,
1.042,-0.304669960989945,-0.160407585761277,,,
1.043,-0.229924654395604,0.123308316160336,,,
1.044,-0.0331539990247636,0.567899687715009,,,
1.045,0.294620615791967,1.15058362814701,,,
1.046,0.724818450890888,1.78791953468383,,,
1.047,1.19541928455556,2.35362561793381,,,
1.048,1.6234882203452,2.71390964385589,,,
1.049,1.92324379947831,2.76846836070447,,,
1.05,2.02532847684123,2.48236333777748,,,
1.051,1.89239783049116,1.89696217486439,,,
1.052,1.52708328921151,1.11607814917219,,,
1.053,0.970692338165436,0.273183696783662,,,
1.054,0.293866058449825,-0.507109947737406,,,
1.055,-0.417368025596929,-1.13876017725217,,,
1.056,-1.07606498786602,-1.58584654728968,,,
1.057,-1.60630076842424,-1.85526169899236,,,
1.058,-1.95143407607898,-1.97729836886894,,,
1.059,-2.07918106341493,-1.98426731151679,,,
1.06,-1.98453866025727,-1.89625699166617,,,
1.061,-1.69097295350084,-1.71903259141567,,,
1.062,-1.24914639141096,-1.45353826810988,,,
1.063,-0.731721283151266,-1.11111868304612,,,
1.064,-0.223119367191676,-0.725447256501531,,,
1.065,0.195321642820225,-0.35336478620847,,,
1.066,0.462050233257525,-0.0624611560767403,,,
1.067,0.549183032065809,0.0899545672422825,,,
1.068,0.468670642629879,0.077995153850677,,,
1.069,0.268012460203136,-0.0795678695794682,,,
1.07,0.0165924277233624,-0.318897160217991,,,
1.071,-0.21266832981188,-0.544671994983616,,,
1.072,-0.360062549470883,-0.654759638781894,,,
1.073,-0.389276666850075,-0.569038300096308,,,
1.074,-0.289517531274494,-0.253230934268995,,,
1.075,-0.0717721832967606,0.269839736305142,,,
1.076,0.236872787936988,0.924329270803272,,,
1.077,0.597793186353791,1.59825387042969,,,
1.078,0.963606860920393,2.16758246968165,,,
1.079,1.2806980001182,2.52164786629897,,,
1.08,1.49381551749976,2.58523785828899,,,
1.081,1.55421813512139,2.33407898489544,,,
1.082,1.43081830458512,1.80128607118357,,,
1.083,1.12160014003807,1.0730704044057,,,
1.084,0.661313309735417,0.273393023902712,,,
1.085,0.121661796938508,-0.460218052909317,,,
1.086,-0.398153071834791,-1.0045674375379,,,
1.087,-0.790124780879059,-1.27570954914946,,,
1.088,-0.962174182968454,-1.24489281893677,,,
1.089,-0.863392161527804,-0.942116269597227,,,
1.09,-0.503024519328258,-0.447437282190813,,,
1.091,0.0431339197970734,0.126319333389586,,,
1.092,0.642863491759162,0.653926072148332,,,
1.093,1.13398157801172,1.01674262603787,,,
1.094,1.36212537814166,1.1191179631554,,,
1.095,1.22081227310477,0.903474388066984,,,
1.096,0.683122590520188,0.364676389337073,,,
1.097,-0.183998497280312,-0.438934794343734,,,
1.098,-1.22745123168346,-1.38338997510662,,,
1.099,-2.23690609245807,-2.29171183915191,,,
1.1,-2.98933342774476,-2.96433557996126,,,
1.101,-3.30012212927572,-3.22464508878125,,,
1.102,-3.06982096193981,-2.96967157593377,,,
1.103,-2.31514988672159,-2.2101613052032,,,
1.104,-1.17472305812457,-1.08356434281912,,,
1.105,0.115350357904762,0.169878015520675,,,
1.106,1.27324189767001,1.26524435682882,,,
1.107,2.03916931598413,1.9490187433345,,,
1.108,2.2414015540709,2.06894390072947,,,
1.109,1.84186358491047,1.61539922434307,,,
1.11,0.948281148928646,0.722953076872576,,,
1.111,-0.210163245854264,-0.365311881845293,,,
1.112,-1.33630895998468,-1.35774631929758,,,
1.113,-2.13350747530383,-1.98200093935401,,,
1.114,-2.37334923099358,-2.04660883388247,,,
1.115,-1.94887231474469,-1.48569937349311,,,
1.116,-0.902839820359518,-0.37868106938444,,,
1.117,0.575520575825806,1.06112109039589,,,
1.118,2.1868542432197,2.53016892549774,,,
1.119,3.58573482521153,3.70368323909344,,,
1.12,4.45951015487344,4.31373261056401,,,
1.121,4.6033945315903,4.21556460884405,,,
1.122,3.97221553437302,3.42377028427681,,,
1.123,2.69395394896231,2.10830138318931,,,
1.124,1.03985870037384,0.551477250578055,,,
1.125,-0.642149805291075,-0.922304696425867,,,
1.126,-2.01330825258487,-2.02508740337296,,,
1.127,-2.82537707436278,-2.57091292184536,,,
1.128,-2.97471056648093,-2.51140316722829,,,
1.129,-2.51469202964564,-1.93409039636193,,,
1.13,-1.62593202935201,-1.02811132655454,,,
1.131,-0.557491607151835,-0.0309900290473128,,,
1.132,0.439439037943027,0.826713453471945,,,
1.133,1.16501139205966,1.36525413951834,,,
1.134,1.49999523816317,1.48144411773838,,,
1.135,1.41102418445869,1.15691391632816,,,
1.136,0.939682576372161,0.453503030540132,,,
1.137,0.184521609079539,-0.500004929958721,,,
1.138,-0.718358262410947,-1.52845729330506,,,
1.139,-1.61481971265104,-2.43882671064089,,,
1.14,-2.35318987941613,-3.055687820468,,,
1.141,-2.80600535891003,-3.25795344596278,,,
1.142,-2.89084483914115,-3.00666763179483,,,
1.143,-2.58593585554027,-2.35369145303021,,,
1.144,-1.93590119264823,-1.42685842171268,,,
1.145,-1.04482118586377,-0.395860376611875,,,
1.146,-0.056986647885715,0.569703518007258,,,
1.147,0.870784507249169,1.33644928536715,,,
1.148,1.59876709915102,1.82740414263764,,,
1.149,2.02880006906612,2.0235436998379,,,
1.15,2.11848689305485,1.95125326958595,,,
1.151,1.88359662329231,1.66414862288584,,,
1.152,1.39045788456926,1.22717904334866,,,
1.153,0.741774009757209,0.707614798897041,,,
1.154,0.0592376863507203,0.173487077360124,,,
1.155,-0.534516120457515,-0.303577687228847,,,
1.156,-0.93296518677004,-0.646824024282108,,,
1.157,-1.06074173456504,-0.780245199083308,,,
1.158,-0.88579162953208,-0.64488041942784,,,
1.159,-0.427290047394932,-0.222564386408586,,,
1.16,0.242840620494972,0.44182304953278,,,
1.161,1.00721109040787,1.23144498533766,,,
1.162,1.72039149223479,1.97163927232784,,,
1.163,2.23535773944671,2.46918276884842,,,
1.164,2.43455152968536,2.56753473957181,,,
1.165,2.25823045716323,2.19905248650325,,,
1.166,1.72164608648927,1.41278843323903,,,
1.167,0.914396367825614,0.364356257720919,,,
1.168,-0.019764802357659,-0.730393797367306,,,
1.169,-0.917728695898955,-1.66058989646165,,,
1.17,-1.6358753033955,-2.2788921342445,,,
1.171,-2.08050719815965,-2.53130990379408,,,
1.172,-2.2205806839679,-2.45007488255971,,,
1.173,-2.0806728308422,-2.11863166859036,,,
1.174,-1.72029592070501,-1.62936784901984,,,
1.175,-1.21074972007368,-1.05473250548361,,,
1.176,-0.619993238924943,-0.441978758325645,,,
1.177,-0.00997232639425827,0.172307093167303,,,
1.178,0.557144954242541,0.741835951993123,,,
1.179,1.01291515614137,1.20010055092209,,,
1.18,1.28580119590446,1.46868640070923,,,
1.181,1.31676703991325,1.48191578780768,,,
1.182,1.08195995495118,1.21555739623073,,,
1.183,0.611186916250756,0.704923435555102,,,
1.184,-0.0088908000330474,0.0431553235610617,,,
1.185,-0.651819184482337,-0.640630745322498,,,
1.186,-1.18494733617592,-1.21604099279145,,,
1.187,-1.50830243361706,-1.5870554529664,,,
1.188,-1.58406598229509,-1.71573867422449,,,
1.189,-1.44437103224032,-1.62465801911169,,,
1.19,-1.17301188958388,-1.37681187573043,,,
1.191,-0.867231649462097,-1.04186259824932,,,
1.192,-0.594783236026468,-0.664308846086941,,,
1.193,-0.364838905924717,-0.248822967803503,,,
1.194,-0.126749047503511,0.229981994589227,,,
1.195,0.200869632551177,0.797813874839669,,,
1.196,0.682065248881055,1.44534235921496,,,
1.197,1.31756498167206,2.1051624978973,,,
1.198,2.02260166220009,2.65470336528007,,,
1.199,2.64105717510275,2.94804893387302,,,
1.2,2.99305744483661,2.86678542650887,,,
1.201,2.93835597157265,2.37018121294804,,,
1.202,2.4303284930026,1.52275937730008,,,
1.203,1.53865686210092,0.484643781272454,,,
1.204,0.431315204077422,-0.535097633746352,,,
1.205,-0.677275541542922,-1.34561792183811,,,
1.206,-1.59191943870071,-1.83538400957279,,,
1.207,-2.19135609761193,-2.00206428320229,,,
1.208,-2.45254282924645,-1.93913710659153,,,
1.209,-2.43800645531684,-1.78593973018167,,,
1.21,-2.25464230084634,-1.66334558251178,,,
1.211,-2.00275884953345,-1.62226159361941,,,
1.212,-1.73618312316521,-1.62519917096929,,,
1.213,-1.44796655700343,-1.56644020263327,,,
1.214,-1.0851134513124,-1.3207511133885,,,
1.215,-0.584392572825151,-0.800519460217869,,,
1.216,0.0863938125295198,0.000320188625576915,,,
1.217,0.898823524874448,0.99090861434968,,,
1.218,1.75787995940497,2.00112103303741,,,
1.219,2.52165540857775,2.82544367350701,,,
1.22,3.03863682327481,3.27828761268834,,,
1.221,3.18853988723148,3.24357653084938,,,
1.222,2.9130871132411,2.70447070444438,,,
1.223,2.22873231743526,1.74583901919235,,,
1.224,1.22072726193689,0.530647687845236,,,
1.225,0.0237224714567909,-0.740541614266625,,,
1.226,-1.20336970747063,-1.87322235713145,,,
1.227,-2.30108149195822,-2.71286681355347,,,
1.228,-3.12726471697948,-3.16193649483773,,,
1.229,-3.56871117996066,-3.18062269131852,,,
1.23,-3.54972699236767,-2.77847602329753,,,
1.231,-3.04204092080079,-2.00618600037416,,,
1.232,-2.07784629719913,-0.953176257695845,,,
1.233,-0.762381456603055,0.250704194566583,,,
1.234,0.722753598332953,1.43770739197337,,,
1.235,2.13576309988047,2.41843600397612,,,
1.236,3.21568097838555,3.01535193390219,,,
1.237,3.74291636101678,3.10658463333239,,,
1.238,3.6017668240346,2.6642868143094,,,
1.239,2.8208312791705,1.77069752561073,,,
1.24,1.57215073472343,0.602972571719288,,,
1.241,0.125699619697496,-0.609581180240437,,,
1.242,-1.22514096100144,-1.64161422226086,,,
1.243,-2.23966479478992,-2.32310338806188,,,
1.244,-2.78146757941618,-2.57145121169895,,,
1.245,-2.83218843255358,-2.39762669249008,,,
1.246,-2.46976583756309,-1.88806749436212,,,
1.247,-1.82541021421101,-1.17091843937315,,,
1.248,-1.03816408415532,-0.379315364026015,,,
1.249,-0.22345350003336,0.375594572313106,,,
1.25,0.53626413639372,1.0143942283436,,,
1.251,1.18189618911986,1.48344046963223,,,
1.252,1.66150888866885,1.74311124204287,,,
1.253,1.9219270359999,1.76230116426308,,,
1.254,1.91604273127044,1.52528804384959,,,
1.255,1.62293284516032,1.04734782560642,,,
1.256,1.06970101811957,0.388852883282581,,,
1.257,0.342572985835851,-0.342342903914816,,,
1.258,-0.420612350640791,-1.00524171301124,,,
1.259,-1.0571154604414,-1.45500616678021,,,
1.26,-1.41872670090051,-1.57961158419255,,,
1.261,-1.41230732389527,-1.33275875564307,,,
1.262,-1.02831983535694,-0.7520455288274,,,
1.263,-0.347466928886938,0.0445894670786394,,,
1.264,0.477261888658476,0.884349415308904,,,
1.265,1.25777459739783,1.58029797999623,,,
1.266,1.81641872462619,1.97630801823751,,,
1.267,2.02763496726245,1.98441976388845,,,
1.268,1.84561678673055,1.60492641387081,,,
1.269,1.31199122830915,0.923932112850692,,,
1.27,0.542352682945281,0.0891242318774227,,,
1.271,-0.304849454556124,-0.729489233486659,,,
1.272,-1.06960467096249,-1.38311708089111,,,
1.273,-1.63150640928329,-1.78022533679806,,,
1.274,-1.93941960779137,-1.90501207588632,,,
1.275,-2.02016741757751,-1.81247666731586,,,
1.276,-1.96229346181392,-1.60111864724066,,,
1.277,-1.87896391195814,-1.37244768742938,,,
1.278,-1.86151793578906,-1.19229116921047,,,
1.279,-1.93903394201968,-1.06863209752656,,,
1.28,-2.05821301535116,-0.953668993914584,,,
1.281,-2.09228992265809,-0.767409582698816,,,
1.282,-1.87894255951064,-0.431883836326833,,,
1.283,-1.27743209566642,0.0973742633008238,,,
1.284,-0.227478725886685,0.812721647198217,,,
1.285,1.21024299483711,1.65249286981846,,,
1.286,2.84787988161666,2.51302140348272,,,
1.287,4.40394602776572,3.26776061457644,,,
1.288,5.56890467968962,3.7870456436822,,,
1.289,6.08389880999732,3.95622728308088,,,
1.29,5.80894156566097,3.69403441105532,,,
1.291,4.76015165840449,2.9726870874745,,,
1.292,3.10570118876098,1.83597463782425,,,
1.293,1.12328908559726,0.406074066695901,,,
1.294,-0.86672621729756,-1.12964384269808,,,
1.295,-2.57269304578859,-2.55297611086291,,,
1.296,-3.78861346080621,-3.66164032073822,,,
1.297,-4.42385583599855,-4.31358142811927,,,
1.298,-4.50161788597727,-4.45474077261874,,,
1.299,-4.13115714714256,-4.12274355866435,,,
1.3,-3.46576370207939,-3.42802539257071,,,
1.301,-2.66109586756866,-2.52130194475069,,,
1.302,-1.8455744083673,-1.5586379835196,,,
1.303,-1.10735476651375,-0.672527547939303,,,
1.304,-0.494820446786244,0.0475112962897677,,,
1.305,-0.023446219389259,0.564782611443746,,,
1.306,0.317302549813933,0.896300504390256,,,
1.307,0.559048501471192,1.10408509618491,,,
1.308,0.748922239635908,1.27554415068624,,,
1.309,0.939055881896662,1.49393797772937,,,
1.31,1.16980150496199,1.80532510927238,,,
1.311,1.45107403718237,2.1935997966692,,,
1.312,1.75065264447512,2.57591570721262,,,
1.313,1.99774828432162,2.82481621552883,,,
1.314,2.10413909971364,2.81249218596709,,,
1.315,1.99664379467983,2.46165459050935,,,
1.316,1.64824981741251,1.78225962107912,,,
1.317,1.09449882007601,0.877391628229114,,,
1.318,0.42742935983684,-0.0859377783088787,,,
1.319,-0.231244728793494,-0.930208961795304,,,
1.32,-0.767467475334185,-1.5237783827386,,,
1.321,-1.10837207489143,-1.81807445160681,,,
1.322,-1.23956242914135,-1.85208451591479,,,
1.323,-1.20055155140153,-1.72462716116036,,,
1.324,-1.06184039968194,-1.54807116623454,,,
1.325,-0.894538640805552,-1.40381583362889,,,
1.326,-0.745733671739976,-1.31733417652413,,,
1.327,-0.629058772797191,-1.26069616429714,,,
1.328,-0.53226848719247,-1.17832741750326,,,
1.329,-0.43575512704478,-1.02237787933906,,,
1.33,-0.331075811248196,-0.780497991683595,,,
1.331,-0.228795246917717,-0.482418548055858,,,
1.332,-0.150674988669046,-0.181986331577889,,,
1.333,-0.110245120093655,0.0756986861510918,,,
1.334,-0.0934564338436195,0.283457516425743,,,
1.335,-0.052714122293424,0.479792599313055,,,
1.336,0.0785288736976395,0.728607056209541,,,
1.337,0.35443485829741,1.0797205312275,,,
1.338,0.782452988373637,1.5300843465261,,,
1.339,1.3030813890205,2.00614546780859,,,
1.34,1.79556164675994,2.37793745831118,,,
1.341,2.11011131806425,2.5007487191162,,,
1.342,2.11561922723189,2.26800630331705,,,
1.343,1.74520231244362,1.65468112975326,,,
1.344,1.02329557431016,0.735061132760463,,,
1.345,0.0653952839506949,-0.331082420719257,,,
1.346,-0.948950322143081,-1.33897866761634,,,
1.347,-1.82138632244242,-2.09312119297308,,,
1.348,-2.38505564318698,-2.45918634195528,,,
1.349,-2.54594703971482,-2.39877177664684,,,
1.35,-2.30420867634785,-1.97700783115812,,,
1.351,-1.75014285180754,-1.34045690364888,,,
1.352,-1.03648831004768,-0.671194128693928,,,
1.353,-0.334789599737114,-0.13066779979587,,,
1.354,0.21203286467071,0.188501102463176,,,
1.355,0.527155899010171,0.285716071818885,,,
1.356,0.615558023924222,0.241582759132792,,,
1.357,0.552305553988595,0.177008705313213,,,
1.358,0.447126951673048,0.198441225175957,,,
1.359,0.398124090602412,0.351004844162246,,,
1.36,0.452010381131466,0.597565598852327,,,
1.361,0.585742697396128,0.831072092239571,,,
1.362,0.716087218619599,0.915058040836056,,,
1.363,0.733421859918918,0.737659156585217,,,
1.364,0.547757555941534,0.260433697402077,,,
1.365,0.130785276439367,-0.454943140447883,,,
1.366,-0.461364841381347,-1.25235137129545,,,
1.367,-1.09403531171056,-1.91943639385352,,,
1.368,-1.58841069538139,-2.24757185355053,,,
1.369,-1.77398587405393,-2.09476103833218,,,
1.37,-1.54198802017,-1.43106813867681,,,
1.371,-0.882025105153749,-0.351904462358082,,,
1.372,0.109785114446457,0.944595661670196,,,
1.373,1.25279526273842,2.20787927641042,,,
1.374,2.32539159607658,3.19617936924516,,,
1.375,3.11571475176757,3.72993660589126,,,
1.376,3.46548913827515,3.72393173826459,,,
1.377,3.29834158128698,3.19407088234978,,,
1.378,2.6305756511642,2.24336039766003,,,
1.379,1.56620784859822,1.03515140580209,,,
1.38,0.27841339324898,-0.239461807083677,,,
1.381,-1.02093956780626,-1.39526101197675,,,
1.382,-2.12048548194746,-2.28301469522352,,,
1.383,-2.85070911708187,-2.81105157715367,,,
1.384,-3.11795771302897,-2.95416165715726,,,
1.385,-2.92164115958494,-2.74865130029059,,,
1.386,-2.34911021861343,-2.27621985285279,,,
1.387,-1.54955092535438,-1.64218821774106,,,
1.388,-0.695001112511927,-0.954162747513516,,,
1.389,0.0597963300561669,-0.305426122441726,,,
1.39,0.607752454282464,0.235395929738335,,,
1.391,0.903266917708971,0.628709468130709,,,
1.392,0.9585329890445,0.863058833625779,,,
1.393,0.826591813307207,0.949603774828211,,,
1.394,0.578682876315913,0.913394601902541,,,
1.395,0.283832635716309,0.784310603083363,,,
1.396,-0.00372063191250241,0.591119417684241,,,
1.397,-0.247668739064193,0.360631578588685,,,
1.398,-0.425764907345398,0.120806833258983,,,
1.399,-0.52377210305534,-0.0960079715643978,,,
1.4,-0.531870945755335,-0.253789688184444,,,
1.401,-0.445658106533514,-0.319284608170214,,,
1.402,-0.270551458094143,-0.272637080081713,,,
1.403,-0.0261980609872443,-0.117906046666486,,,
1.404,0.252629652655512,0.111961675003912,,,
1.405,0.520507221709205,0.359926897620348,,,
1.406,0.730670627500454,0.55979069935998,,,
1.407,0.846430175046969,0.656422885090347,,,
1.408,0.850626336734556,0.622983743714786,,,
1.409,0.74934175801824,0.467832512571398,,,
1.41,0.568278219163671,0.228986533057407,,,
1.411,0.343516220032806,-0.0400222498640966,,,
1.412,0.110945741748796,-0.285962242795748,,,
1.413,-0.101131148769195,-0.467442214444436,,,
1.414,-0.273976293332201,-0.559730430912994,,,
1.415,-0.395966505435302,-0.554087748032521,,,
1.416,-0.458990343417972,-0.454966746218236,,,
1.417,-0.457039073993019,-0.278199147398401,,,
1.418,-0.388370226714218,-0.0511157286401569,,,
1.419,-0.259890799685256,0.187257903861097,,,
1.42,-0.0904964253258709,0.389550761387217,,,
1.421,0.089950580735149,0.509717146310084,,,
1.422,0.247417894441583,0.517916594628563,,,
1.423,0.354641625168386,0.414628563549782,,,
1.424,0.401826574085162,0.235955001970881,,,
1.425,0.401777617538658,0.0450487056847098,,,
1.426,0.385750910247662,-0.0888127648599514,,,
1.427,0.39003978775117,-0.115849105317431,,,
1.428,0.437602551186555,-0.0261571374864974,,,
1.429,0.522003406965246,0.142875900943318,,,
1.43,0.601179201635666,0.314950188293897,,,
1.431,0.605751054575758,0.396776545628907,,,
1.432,0.461587532401169,0.307688638285061,,,
1.433,0.120634833719255,0.00912392536523494,,,
1.434,-0.410477700501437,-0.474543544881532,,,
1.435,-1.05593851365708,-1.05145705561226,,,
1.436,-1.67909751368866,-1.578331294777,,,
1.437,-2.11491559280416,-1.89563062506516,,,
1.438,-2.21850839788848,-1.87378551727701,,,
1.439,-1.91461992766938,-1.45740255484571,,,
1.44,-1.23095666340891,-0.69306528941184,,,
1.441,-0.302411354738154,0.270544243516167,,,
1.442,0.658103711020445,1.21406557656718,,,
1.443,1.41576839054828,1.90427760824741,,,
1.444,1.78089939854231,2.16081458298527,,,
1.445,1.66597066508987,1.91229654691453,,,
1.446,1.11378048530581,1.22318746565702,,,
1.447,0.286927938237205,0.281146199234682,,,
1.448,-0.578603957217532,-0.653089213428667,,,
1.449,-1.24139520038346,-1.31950398128444,,,
1.45,-1.52318707690699,-1.5349355735164,,,
1.451,-1.35750075892162,-1.24835866678236,,,
1.452,-0.803964117423897,-0.55663874822963,,,
1.453,-0.0243285606839373,0.326928265181613,,,
1.454,0.772114338754554,1.14309602716263,,,
1.455,1.39580499813262,1.67250171532048,,,
1.456,1.73382655352659,1.80540986584171,,,
1.457,1.77630998136656,1.56879771943028,,,
1.458,1.60330976595184,1.10099137207362,,,
1.459,1.33860240497039,0.58585513404963,,,
1.46,1.0902408020685,0.175214339289711,,,
1.461,0.903114063234839,-0.0680807675210412,,,
1.462,0.743715848616966,-0.184235767378986,,,
1.463,0.523763002481201,-0.284086785741273,,,
1.464,0.152726279983862,-0.485493322881367,,,
1.465,-0.403547825789399,-0.846400863515786,,,
1.466,-1.08480400093446,-1.32406083153588,,,
1.467,-1.73843517243376,-1.77949292594371,,,
1.468,-2.16515774695564,-2.02739004530473,,,
1.469,-2.19321967877832,-1.91231679569369,,,
1.47,-1.75269324228779,-1.3807974221675,,,
1.471,-0.919318934190859,-0.519943765120505,,,
1.472,0.0922821564712202,0.454682985920272,,,
1.473,0.987553467981386,1.26093393421631,,,
1.474,1.48492477082902,1.64208764274063,,,
1.475,1.41108535522107,1.45720969149316,,,
1.476,0.764738630605105,0.737046955881311,,,
1.477,-0.27494256925575,-0.316012173776392,,,
1.478,-1.39977616620899,-1.38561538489852,,,
1.479,-2.26730008079165,-2.13788274439052,,,
1.48,-2.60688793686493,-2.32417006114223,,,
1.481,-2.30180974274096,-1.85605807003259,,,
1.482,-1.42076179363689,-0.82898249003778,,,
1.483,-0.190200826279965,0.510666038605784,,,
1.484,1.08088005885499,1.84106748908019,,,
1.485,2.09636426193046,2.85657623874386,,,
1.486,2.65583053482033,3.34663366028328,,,
1.487,2.69893619720517,3.24084307648404,,,
1.488,2.30158973816729,2.61215816624546,,,
1.489,1.63208494670559,1.6431803647238,,,
1.49,0.887780324254332,0.569497241139567,,,
1.491,0.235842639087439,-0.382656039093619,,,
1.492,-0.224319718110579,-1.04862164947063,,,
1.493,-0.470092457868721,-1.35620622503479,,,
1.494,-0.540079208651294,-1.33007838601419,,,
1.495,-0.504793642911637,-1.0710977633253,,,
1.496,-0.436187673426207,-0.718168500515655,,,
1.497,-0.385744707175505,-0.404657112785773,,,
1.498,-0.375560110420117,-0.222452482657439,,,
1.499,-0.401388081006615,-0.203373243359964,,,
1.5,-0.442915212020954,-0.320904371791248,,,
1.501,-0.475478036237578,-0.508193066161058,,,
1.502,-0.478901076095945,-0.683861261245959,,,
1.503,-0.441885936436593,-0.776717191386299,,,
1.504,-0.36279535347203,-0.743159049710341,,,
1.505,-0.248634037494169,-0.575025638444975,,,
1.506,-0.113523445917433,-0.29869844481059,,,
1.507,0.0231485090560876,0.0325802558573384,,,
1.508,0.139470397996613,0.351116567701927,,,
1.509,0.215064448053473,0.589606255449518,,,
1.51,0.235978112947152,0.695709198361163,,,
1.511,0.198953800641157,0.643706595244924,,,
1.512,0.1133244253594,0.441025282334071,,,
1.513,-0.000554109611375359,0.127869151793643,,,
1.514,-0.116144310927029,-0.23090006260904,,,
1.515,-0.207402718353526,-0.560463968924544,,,
1.516,-0.255174695319102,-0.793591257081767,,,
1.517,-0.251344266941519,-0.885936794892407,,,
1.518,-0.199647874041443,-0.824907723927783,,,
1.519,-0.113258765268219,-0.630202585642739,,,
1.52,-0.0102789142885705,-0.346407256552207,,,
1.521,0.0912285356949571,-0.0298991795288396,,,
1.522,0.177178825515929,0.266117658584482,,,
1.523,0.239502023660622,0.503854182179194,,,
1.524,0.276138384016141,0.66667432266719,,,
1.525,0.289434565887716,0.757060216023843,,,
1.526,0.283720079273384,0.788843507108352,,,
1.527,0.262963518225802,0.778112988670917,,,
1.528,0.22930867041933,0.737017386984442,,,
1.529,0.182955198580448,0.672032454910943,,,
1.53,0.123352119127715,0.585366779789876,,,
1.531,0.0511925550247776,0.47729268896532,,,
1.532,-0.0295989806640038,0.348327146564569,,,
1.533,-0.110754366943654,0.201517868128136,,,
1.534,-0.180124382055151,0.0451361617344959,,,
1.535,-0.224005611936579,-0.105078889141161,,,
1.536,-0.230968644712599,-0.226199200790208,,,
1.537,-0.196088874863599,-0.292961277521263,,,
1.538,-0.124004548229789,-0.287283870927173,,,
1.539,-0.0293450881488978,-0.209306346617673,,,
1.54,0.0661215549327135,-0.0843187683250298,,,
1.541,0.139047886226472,0.0397499795389775,,,
1.542,0.171088609644496,0.105942769212565,,,
1.543,0.154351924150128,0.0690207614070963,,,
1.544,0.0939251960275855,-0.0850007138519393,,,
1.545,0.00663825729669617,-0.329075962343624,,,
1.546,-0.0836275131174832,-0.599677055129103,,,
1.547,-0.152778260136559,-0.81477986090376,,,
1.548,-0.183536707523591,-0.899836317176652,,,
1.549,-0.170539216450848,-0.813365312243325,,,
1.55,-0.121811194587762,-0.563218822167623,,,
1.551,-0.055960502251836,-0.207228929965395,,,
1.552,0.00415196480441022,0.162726071294986,,,
1.553,0.039158610751794,0.448426444814744,,,
1.554,0.039580877614356,0.576036608073566,,,
1.555,0.00856099381017131,0.52001034940382,,,
1.556,-0.0399340556040874,0.312083309220874,,,
1.557,-0.0865333015447783,0.0315006698653058,,,
1.558,-0.11332192562379,-0.221393349844833,,,
1.559,-0.109630468833048,-0.359990581247974,,,
1.56,-0.074881580289927,-0.342495821867991,,,
1.561,-0.0178587911160026,-0.187135422970544,,,
1.562,0.0469493161346131,0.0355623776440266,,,
1.563,0.104397188330059,0.231369089256575,,,
1.564,0.143321473550429,0.320328554721428,,,
1.565,0.15928232291064,0.267970599827344,,,
1.566,0.154676100294872,0.0968306765149073,,,
1.567,0.13647181144268,-0.125362917081744,,,
1.568,0.112692940131193,-0.314111089804772,,,
1.569,0.0891695065731829,-0.400109786342864,,,
1.57,0.0678601667872266,-0.351884505487568,,,
1.571,0.0473071183819537,-0.181938793173328,,,
1.572,0.0248406615490423,0.0629997204921308,,,
1.573,-0.000641735191132011,0.321060678921332,,,
1.574,-0.0268064463350898,0.534946267649485,,,
1.575,-0.0480532484399928,0.66531485064884,,,
1.576,-0.0579174777774032,0.694913373230369,,,
1.577,-0.0527698811470991,0.624893554564926,,,
1.578,-0.0350789391998501,0.467723887965931,,,
1.579,-0.014430187085646,0.241728333161364,,,
1.58,-0.00525518468799188,-0.029678930982076,,,
1.581,-0.021575171003536,-0.314768964907929,,,
1.582,-0.0705082874729955,-0.570538669369098,,,
1.583,-0.147199112854603,-0.745212994461961,,,
1.584,-0.233706004637066,-0.78891546795885,,,
1.585,-0.303102331127756,-0.670554413709991,,,
1.586,-0.327974358353616,-0.394411062110429,,,
1.587,-0.290425672613425,-0.00788631142344666,,,
1.588,-0.18962255541416,0.405808813470822,,,
1.589,-0.0435663573295253,0.749870205238416,,,
1.59,0.115927559163189,0.94356360836399,,,
1.591,0.253180966252643,0.947695329534254,,,
1.592,0.339661082687501,0.775639490814736,,,
1.593,0.361985279248226,0.485914955515196,,,
1.594,0.324381202961809,0.160031767516175,,,
1.595,0.245367614596803,-0.125278081454683,,,
1.596,0.150470485134112,-0.32112747330808,,,
1.597,0.0638948150987096,-0.417080600113891,,,
1.598,0.00200960510419272,-0.436524233923624,,,
1.599,-0.0295404564077509,-0.419883540964644,,,
1.6,-0.0347995474501528,-0.403446114006239,,,
1.601,-0.0236167389142512,-0.402994451560229,,,
1.602,-0.00676484243365954,-0.408885858925416,,,
1.603,0.00804604679044584,-0.393921893944397,,,
1.604,0.0179450438981828,-0.329816191619411,,,
1.605,0.0241076844322468,-0.204613987616746,,,
1.606,0.0290755625545839,-0.0332437814594722,,,
1.607,0.0336361507464175,0.143584433247019,,,
1.608,0.0348613504880212,0.271917279546765,,,
